"","year","agency_code","ALL","AM7","AS7","BL7","EDS","ELS","FEM","HI7","MALE","MU7","SWD","WH7","NEDS","NSWD"
"1",2018,"00A000",2290,0.0126637554585153,0.0279475982532751,0.212663755458515,0.18646288209607,0.0222707423580786,0.559825327510917,0.141484716157205,0.440174672489083,0.0751091703056769,0.113100436681223,0.530131004366812,NA,NA
"2",2018,"00B000",2486,0.00683829444891392,0.0084473049074819,0.204344328238134,0.261866452131939,0.0156878519710378,0.509251810136766,0.101769911504425,0.490748189863234,0.0989541432019308,0.150442477876106,0.579646017699115,NA,NA
"3",2018,"010304",705,NA,NA,0.0921985815602837,0.509219858156028,0.212765957446809,0.472340425531915,0.280851063829787,0.527659574468085,0.051063829787234,0.0964539007092199,0.565957446808511,NA,NA
"4",2018,"010308",814,NA,NA,0.0945945945945946,0.455773955773956,0.0798525798525798,0.497542997542998,0.152334152334152,0.502457002457002,0.0454545454545455,0.12039312039312,0.7002457002457,NA,NA
"5",2018,"010310",1696,NA,0.00825471698113208,0.344929245283019,0.543042452830189,0.336084905660377,0.465801886792453,0.538325471698113,0.534198113207547,0.0324292452830189,0.153891509433962,0.0731132075471698,NA,NA
"6",2018,"010312",839,NA,0.0512514898688915,0.200238379022646,0.350417163289631,0.114421930870083,0.506555423122765,0.133492252681764,0.493444576877235,0.0464839094159714,0.146603098927294,0.566150178784267,NA,NA
"7",2018,"010320",389,NA,NA,0.161953727506427,0.375321336760925,0.0359897172236504,0.491002570694087,0.0976863753213368,0.508997429305913,0.0359897172236504,0.102827763496144,0.686375321336761,NA,NA
"8",2018,"010326",723,NA,NA,0.360995850622407,0.639004149377593,0.396957123098202,0.525587828492393,0.525587828492393,0.474412171507607,0.029045643153527,0.0940525587828492,0.0788381742738589,NA,NA
"9",2018,"010328",742,NA,NA,0.0269541778975741,0.299191374663073,0.0148247978436658,0.464959568733154,0.0592991913746631,0.535040431266846,0.0202156334231806,0.101078167115903,0.890835579514825,NA,NA
"10",2018,"010340",838,NA,0.0167064439140811,0.146778042959427,0.455847255369928,0.140811455847255,0.5,0.201670644391408,0.5,0.0393794749403341,0.0656324582338902,0.588305489260143,NA,NA
"11",2018,"010346",434,NA,0.0230414746543779,0.0552995391705069,0.594470046082949,0.202764976958525,0.463133640552995,0.232718894009217,0.536866359447005,0.0506912442396313,0.126728110599078,0.638248847926267,NA,NA
"12",2018,"010347",795,NA,0.0163522012578616,0.164779874213836,0.561006289308176,0.138364779874214,0.514465408805031,0.223899371069182,0.485534591194969,0.0427672955974843,0.110691823899371,0.545911949685535,NA,NA
"13",2018,"010350",1461,NA,0.0171115674195756,0.281314168377823,0.838466803559206,0.293634496919918,0.531827515400411,0.451060917180014,0.468172484599589,0.054072553045859,0.120465434633812,0.193018480492813,NA,NA
"14",2018,"010351",555,NA,NA,0.401801801801802,0.563963963963964,0.216216216216216,0.448648648648649,0.32972972972973,0.551351351351351,0.0792792792792793,0.154954954954955,0.169369369369369,NA,NA
"15",2018,"010353",1560,NA,0.0230769230769231,0.162179487179487,0.552564102564103,0.142948717948718,0.47948717948718,0.240384615384615,0.520512820512821,0.0532051282051282,0.132692307692308,0.516666666666667,NA,NA
"16",2018,"010354",772,NA,NA,0.427461139896373,0.645077720207254,0.224093264248705,0.522020725388601,0.378238341968912,0.477979274611399,0.0297927461139896,0.106217616580311,0.151554404145078,NA,NA
"17",2018,"010357",667,0.0254872563718141,NA,0.245877061469265,0.55472263868066,0.394302848575712,0.47376311844078,0.51424287856072,0.52623688155922,0.0449775112443778,0.133433283358321,0.166416791604198,NA,NA
"18",2018,"010358",752,NA,0.0159574468085106,0.481382978723404,0.577127659574468,0.199468085106383,0.457446808510638,0.280585106382979,0.542553191489362,0.0558510638297872,0.0984042553191489,0.166223404255319,NA,NA
"19",2018,"010362",634,NA,0.0394321766561514,0.23186119873817,0.451104100946372,0.108832807570978,0.526813880126183,0.201892744479495,0.473186119873817,0.0457413249211356,0.0678233438485804,0.481072555205047,NA,NA
"20",2018,"010364",482,NA,NA,0.37551867219917,0.607883817427386,0.298755186721992,0.475103734439834,0.360995850622407,0.524896265560166,0.0643153526970954,0.176348547717842,0.190871369294606,NA,NA
"21",2018,"010372",327,NA,NA,0.287461773700306,0.474006116207951,0.18348623853211,0.437308868501529,0.256880733944954,0.562691131498471,0.073394495412844,0.162079510703364,0.363914373088685,NA,NA
"22",2018,"010374",674,NA,NA,0.268545994065282,0.55786350148368,0.519287833827893,0.504451038575668,0.63946587537092,0.495548961424332,0.0341246290801187,0.129080118694362,0.0385756676557863,NA,NA
"23",2018,"010378",114,NA,NA,0.412280701754386,0.807017543859649,NA,0.184210526315789,NA,0.815789473684211,0.114035087719298,0.666666666666667,0.403508771929825,NA,NA
"24",2018,"010380",644,NA,0.0403726708074534,0.22360248447205,0.445652173913043,0.321428571428571,0.444099378881988,0.47360248447205,0.555900621118012,0.0543478260869565,0.114906832298137,0.208074534161491,NA,NA
"25",2018,"010384",782,NA,0.0217391304347826,0.283887468030691,0.379795396419437,0.0370843989769821,0.554987212276215,0.108695652173913,0.445012787723785,0.0843989769820972,0.112531969309463,0.49616368286445,NA,NA
"26",2018,"010390",1690,NA,0.00828402366863905,0.0366863905325444,0.39112426035503,0.0532544378698225,0.504733727810651,0.119526627218935,0.495266272189349,0.0319526627218935,0.115384615384615,0.802366863905325,NA,NA
"27",2018,"010392",343,NA,NA,0.0524781341107872,0.647230320699708,0.0641399416909621,0.498542274052478,0.128279883381924,0.501457725947522,0.0408163265306122,0.142857142857143,0.763848396501458,NA,NA
"28",2018,"010394",1954,NA,0.0276356192425793,0.356704196519959,0.651484135107472,0.123336745138178,0.463664278403275,0.250767656090072,0.536335721596725,0.0552712384851586,0.123336745138178,0.307574206755374,NA,NA
"29",2018,"010403",1965,0.00559796437659033,0.00814249363867684,0.0956743002544529,0.357760814249364,0.0865139949109415,0.489567430025445,0.169465648854962,0.510432569974555,0.0427480916030534,0.0900763358778626,0.67735368956743,NA,NA
"30",2018,"010406",1251,0.0119904076738609,0.017585931254996,0.220623501199041,0.403677058353317,0.0735411670663469,0.493205435651479,0.165467625899281,0.506794564348521,0.0647482014388489,0.119904076738609,0.517985611510791,NA,NA
"31",2018,"010LEA",24602,0.00398341598244045,0.0156084871148687,0.224250060970653,0.516746605966995,0.176530363385091,0.489025282497358,0.276847410779611,0.510974717502642,0.047516462076254,0.120437362816031,0.430859279733355,NA,NA
"32",2018,"01B000",918,NA,0.0185185185185185,0.128540305010893,0.0947712418300654,0.0457516339869281,0.530501089324619,0.0697167755991285,0.469498910675381,0.0435729847494553,0.0980392156862745,0.739651416122004,NA,NA
"33",2018,"01C000",751,NA,NA,0.0279627163781625,0.0785619174434088,NA,0.539280958721704,0.0479360852197071,0.460719041278296,0.0412782956058589,0.137150466045273,0.877496671105193,NA,NA
"34",2018,"01D000",375,NA,NA,0.0346666666666667,0.08,NA,0.36,0.0613333333333333,0.64,0.0453333333333333,0.146666666666667,0.845333333333333,NA,NA
"35",2018,"020304",539,NA,NA,NA,0.311688311688312,NA,0.510204081632653,0.0612244897959184,0.489795918367347,0.0333951762523191,0.120593692022263,0.884972170686456,NA,NA
"36",2018,"020306",1391,NA,0.0172537742631201,0.0517613227893602,0.537023723939612,0.0546369518332135,0.485262401150252,0.14018691588785,0.514737598849748,0.0388209920920201,0.119338605319914,0.749820273184759,NA,NA
"37",2018,"020308",371,NA,NA,0.0512129380053908,0.450134770889488,NA,0.506738544474393,0.0296495956873315,0.493261455525606,NA,0.169811320754717,0.894878706199461,NA,NA
"38",2018,"020316",552,NA,NA,0.0507246376811594,0.65036231884058,0.119565217391304,0.396739130434783,0.182971014492754,0.603260869565217,0.0434782608695652,0.192028985507246,0.704710144927536,NA,NA
"39",2018,"020320",301,NA,NA,0.053156146179402,0.651162790697674,0.053156146179402,0.448504983388704,0.0764119601328904,0.551495016611296,0.0730897009966777,0.152823920265781,0.79734219269103,NA,NA
"40",2018,"020324",276,NA,NA,NA,0.503623188405797,NA,0.52536231884058,0.0434782608695652,0.47463768115942,0.0652173913043478,0.141304347826087,0.884057971014493,NA,NA
"41",2018,"020328",288,NA,NA,0.131944444444444,0.447916666666667,0.118055555555556,0.510416666666667,0.229166666666667,0.489583333333333,0.128472222222222,0.197916666666667,0.503472222222222,NA,NA
"42",2018,"020330",1215,NA,0.0255144032921811,0.0164609053497942,0.383539094650206,0.0255144032921811,0.473251028806584,0.0460905349794239,0.526748971193416,0.0403292181069959,0.120164609053498,0.871604938271605,NA,NA
"43",2018,"020332",361,NA,0.038781163434903,NA,0.473684210526316,0.0637119113573407,0.49584487534626,0.138504155124654,0.50415512465374,0.0526315789473684,0.138504155124654,0.756232686980609,NA,NA
"44",2018,"020LEA",5294,NA,0.0158670192670948,0.0389119758216849,0.480166225916131,0.0483566301473366,0.479410653570079,0.103324518322629,0.520589346429921,0.0472232716282584,0.139403097846619,0.793728749527767,NA,NA
"45",2018,"030308",328,NA,NA,NA,0.710365853658537,0.167682926829268,0.432926829268293,0.277439024390244,0.567073170731707,NA,0.225609756097561,0.707317073170732,NA,NA
"46",2018,"030316",231,NA,NA,NA,0.454545454545455,0.0432900432900433,0.575757575757576,0.0822510822510823,0.424242424242424,NA,0.0649350649350649,0.891774891774892,NA,NA
"47",2018,"030320",848,NA,NA,NA,0.675707547169811,0.0813679245283019,0.48938679245283,0.277122641509434,0.51061320754717,0.0259433962264151,0.137971698113208,0.672169811320755,NA,NA
"48",2018,"030LEA",1407,NA,NA,NA,0.647476901208245,0.0952380952380952,0.490405117270789,0.245202558635394,0.509594882729211,0.023454157782516,0.146410803127221,0.716417910447761,NA,NA
"49",2018,"040305",27,NA,NA,1,0.777777777777778,NA,0.555555555555556,NA,0.444444444444444,NA,0.666666666666667,NA,NA,NA
"50",2018,"040308",238,NA,NA,0.373949579831933,0.302521008403361,NA,0.525210084033613,NA,0.474789915966387,NA,0.100840336134454,0.525210084033613,NA,NA
"51",2018,"040309",1445,NA,0.0262975778546713,0.575778546712803,0.524567474048443,0.0429065743944637,0.516262975778547,0.0567474048442907,0.483737024221453,0.0456747404844291,0.146020761245675,0.294117647058824,NA,NA
"52",2018,"040311",179,NA,NA,0.754189944134078,0.76536312849162,NA,0.46927374301676,NA,0.53072625698324,NA,0.173184357541899,0.189944134078212,NA,NA
"53",2018,"040316",303,NA,NA,0.600660066006601,0.541254125412541,NA,0.462046204620462,NA,0.537953795379538,0.033003300330033,0.323432343234323,0.333333333333333,NA,NA
"54",2018,"040324",225,NA,NA,0.84,0.706666666666667,0.0888888888888889,0.502222222222222,0.0888888888888889,0.497777777777778,NA,0.155555555555556,0.0622222222222222,NA,NA
"55",2018,"040328",534,NA,NA,0.249063670411985,0.455056179775281,0.052434456928839,0.47752808988764,0.0636704119850187,0.52247191011236,0.0543071161048689,0.146067415730337,0.616104868913858,NA,NA
"56",2018,"040330",411,NA,NA,0.798053527980535,0.732360097323601,NA,0.450121654501217,0.024330900243309,0.549878345498783,0.0267639902676399,0.119221411192214,0.13625304136253,NA,NA
"57",2018,"040LEA",3362,0.00327186198691255,0.0172516359309935,0.569601427721594,0.55175490779298,0.0356930398572278,0.494646044021416,0.0484830458060678,0.505353955978584,0.0389649018441404,0.161808447352766,0.322427126710292,NA,NA
"58",2018,"050305",1076,NA,NA,NA,0.578996282527881,0.0473977695167286,0.49907063197026,0.107806691449814,0.50092936802974,0.0130111524163569,0.12453531598513,0.870817843866171,NA,NA
"59",2018,"050310",689,NA,NA,NA,0.616835994194485,0.0159651669085631,0.457184325108853,0.058055152394775,0.542815674891147,0.0174165457184325,0.146589259796807,0.920174165457184,NA,NA
"60",2018,"050330",781,NA,NA,NA,0.626120358514725,0.142125480153649,0.495518565941101,0.192061459667093,0.504481434058899,NA,0.158770806658131,0.779769526248399,NA,NA
"61",2018,"050335",742,NA,NA,NA,0.533692722371968,0.0633423180592992,0.471698113207547,0.12533692722372,0.528301886792453,0.0336927223719677,0.179245283018868,0.824797843665768,NA,NA
"62",2018,"050LEA",3288,NA,0.00425790754257908,0.00760340632603406,0.587895377128954,0.0669099756690998,0.483272506082725,0.121350364963504,0.516727493917275,0.017639902676399,0.14963503649635,0.849148418491484,NA,NA
"63",2018,"060304",161,NA,NA,NA,0.453416149068323,0.161490683229814,0.459627329192547,0.149068322981366,0.540372670807453,NA,0.186335403726708,0.77639751552795,NA,NA
"64",2018,"060310",427,NA,NA,NA,0.573770491803279,0.0234192037470726,0.407494145199063,0.0374707259953162,0.592505854800937,0.0257611241217799,0.140515222482436,0.927400468384075,NA,NA
"65",2018,"060316",237,NA,NA,NA,0.607594936708861,0.0632911392405063,0.50210970464135,0.10126582278481,0.49789029535865,0.0421940928270042,0.20253164556962,0.856540084388186,NA,NA
"66",2018,"060318",638,NA,0.0188087774294671,NA,0.564263322884012,0.169278996865204,0.504702194357367,0.197492163009404,0.495297805642633,NA,0.153605015673981,0.766457680250784,NA,NA
"67",2018,"060322",230,NA,NA,NA,0.656521739130435,NA,0.478260869565217,NA,0.521739130434783,NA,0.108695652173913,0.943478260869565,NA,NA
"68",2018,"060328",341,NA,NA,NA,0.765395894428152,0.225806451612903,0.49266862170088,0.258064516129032,0.50733137829912,NA,0.26099706744868,0.686217008797654,NA,NA
"69",2018,"060332",137,0.072992700729927,NA,NA,0.613138686131387,NA,0.569343065693431,NA,0.430656934306569,NA,0.0948905109489051,0.875912408759124,NA,NA
"70",2018,"060LEA",2171,0.0064486411791801,0.0138185168125288,NA,0.607093505297098,0.11377245508982,0.481345002303086,0.133118378627361,0.518654997696914,0.0216490096729618,0.167204053431598,0.821741133118379,NA,NA
"71",2018,"06A000",28,NA,NA,NA,NA,NA,0.464285714285714,NA,0.535714285714286,NA,NA,0.607142857142857,NA,NA
"72",2018,"06B000",167,NA,NA,NA,0.413173652694611,NA,0.389221556886228,0.0658682634730539,0.610778443113772,NA,0.347305389221557,0.904191616766467,NA,NA
"73",2018,"070308",902,NA,NA,0.0221729490022173,0.196230598669623,0.0443458980044346,0.527716186252772,0.0997782705099778,0.472283813747228,0.0232815964523282,0.144124168514412,0.854767184035477,NA,NA
"74",2018,"070310",42,NA,NA,0.571428571428571,0.857142857142857,NA,0.380952380952381,NA,0.619047619047619,NA,NA,0.285714285714286,NA,NA
"75",2018,"070325",1018,NA,NA,0.290766208251473,0.448919449901768,0.0618860510805501,0.489194499017682,0.152259332023576,0.510805500982318,0.0471512770137525,0.117878192534381,0.50196463654224,NA,NA
"76",2018,"070326",398,NA,NA,0.28643216080402,0.527638190954774,0.0753768844221105,0.391959798994975,0.115577889447236,0.608040201005025,0.0703517587939698,0.0703517587939698,0.517587939698492,NA,NA
"77",2018,"070327",504,NA,NA,0.464285714285714,0.583333333333333,0.182539682539683,0.507936507936508,0.21031746031746,0.492063492063492,0.0317460317460317,0.138888888888889,0.28968253968254,NA,NA
"78",2018,"070328",1334,NA,0.00974512743628186,0.374812593703148,0.50599700149925,0.198650674662669,0.483508245877061,0.230134932533733,0.516491754122939,0.0449775112443778,0.146176911544228,0.340329835082459,NA,NA
"79",2018,"070329",731,NA,NA,0.284541723666211,0.467852257181943,0.0930232558139535,0.470588235294118,0.166894664842681,0.529411764705882,0.0519835841313269,0.13406292749658,0.496580027359781,NA,NA
"80",2018,"070338",1744,NA,NA,0.368692660550459,0.471903669724771,0.131880733944954,0.463876146788991,0.193807339449541,0.536123853211009,0.0338302752293578,0.156536697247706,0.397935779816514,NA,NA
"81",2018,"070340",232,NA,NA,0.711206896551724,0.543103448275862,0.0560344827586207,0.418103448275862,0.0474137931034483,0.581896551724138,0.0603448275862069,0.168103448275862,0.181034482758621,NA,NA
"82",2018,"070LEA",6905,NA,0.00391020999275887,0.319188993482983,0.454742939898624,0.11643736422882,0.477480086893555,0.170601013758146,0.522519913106445,0.0415640839971035,0.139029688631427,0.463287472845764,NA,NA
"83",2018,"07A000",487,NA,NA,0.0390143737166324,0.0780287474332649,NA,0.476386036960986,0.0677618069815195,0.523613963039014,NA,0.186858316221766,0.880903490759754,NA,NA
"84",2018,"080314",1121,NA,NA,0.843889384478145,0.567350579839429,0.0133809099018733,0.515611061552186,0.0205173951828724,0.484388938447814,0.00892060660124889,0.115967885816236,0.113291703835861,NA,NA
"85",2018,"080348",192,NA,NA,0.739583333333333,0.567708333333333,NA,0.421875,NA,0.578125,NA,0.109375,0.234375,NA,NA
"86",2018,"080356",279,NA,NA,0.885304659498208,0.630824372759857,NA,0.491039426523298,NA,0.508960573476703,0.043010752688172,0.136200716845878,0.0501792114695341,NA,NA
"87",2018,"080360",256,NA,NA,0.8359375,0.6640625,NA,0.5,NA,0.5,0.04296875,0.15234375,0.11328125,NA,NA
"88",2018,"080362",509,NA,NA,0.795677799607073,0.691552062868369,NA,0.532416502946955,NA,0.467583497053045,0.0275049115913556,0.137524557956778,0.149312377210216,NA,NA
"89",2018,"080LEA",2357,0.00509121764955452,0.00424268137462877,0.829019940602461,0.612218922358931,0.00848536274925753,0.507000424268138,0.0161221892235893,0.492999575731863,0.0220619431480696,0.126431904963937,0.123462028001697,NA,NA
"90",2018,"08A000",208,NA,NA,0.798076923076923,0.711538461538462,NA,0.423076923076923,NA,0.576923076923077,0.0817307692307692,0.139423076923077,0.120192307692308,NA,NA
"91",2018,"090304",193,NA,NA,0.699481865284974,0.678756476683938,0.0621761658031088,0.528497409326425,0.10880829015544,0.471502590673575,NA,0.0673575129533679,0.0984455958549223,NA,NA
"92",2018,"090315",754,0.0172413793103448,NA,0.19893899204244,0.43368700265252,0.0503978779840849,0.53448275862069,0.108753315649867,0.46551724137931,0.0676392572944297,0.116710875331565,0.607427055702918,NA,NA
"93",2018,"090317",274,NA,NA,0.197080291970803,0.532846715328467,0.072992700729927,0.503649635036496,0.102189781021898,0.496350364963504,0.0802919708029197,0.102189781021898,0.62043795620438,NA,NA
"94",2018,"090318",142,NA,NA,0.225352112676056,0.422535211267606,0.183098591549296,0.422535211267606,0.366197183098592,0.577464788732394,NA,0.112676056338028,0.366197183098592,NA,NA
"95",2018,"090320",491,NA,NA,0.39918533604888,0.393075356415479,0.0305498981670061,0.619144602851324,0.09979633401222,0.380855397148676,0.0610997963340122,0.0407331975560081,0.429735234215886,NA,NA
"96",2018,"090324",178,NA,NA,0.179775280898876,0.415730337078652,0.359550561797753,0.50561797752809,0.426966292134831,0.49438202247191,NA,0.0674157303370786,0.382022471910112,NA,NA
"97",2018,"090328",248,NA,NA,0.504032258064516,0.657258064516129,0.193548387096774,0.512096774193548,0.318548387096774,0.487903225806452,0.0685483870967742,0.217741935483871,0.092741935483871,NA,NA
"98",2018,"090332",1006,0.0248508946322068,NA,0.493041749502982,0.499005964214712,0.0874751491053678,0.445328031809145,0.154075546719682,0.554671968190855,0.0407554671968191,0.148111332007952,0.284294234592445,NA,NA
"99",2018,"090333",334,NA,NA,0.532934131736527,0.520958083832335,0.0958083832335329,0.568862275449102,0.143712574850299,0.431137724550898,0.0658682634730539,0.179640718562874,0.245508982035928,NA,NA
"100",2018,"090352",138,NA,NA,0.333333333333333,0.565217391304348,0.347826086956522,0.405797101449275,0.434782608695652,0.594202898550725,NA,0.130434782608696,0.130434782608696,NA,NA
"101",2018,"090365",844,0.0201421800947867,NA,0.285545023696682,0.441943127962085,0.209715639810427,0.451421800947867,0.360189573459716,0.548578199052133,0.0272511848341232,0.0995260663507109,0.306872037914692,NA,NA
"102",2018,"090LEA",4602,0.0180356366797045,NA,0.366145154280748,0.482616253802694,0.123424598000869,0.499565406345067,0.207301173402868,0.500434593654933,0.0501955671447197,0.117774880486745,0.357670578009561,NA,NA
"103",2018,"09A000",179,0.0782122905027933,NA,0.575418994413408,0.519553072625698,NA,0.374301675977654,0.111731843575419,0.625698324022346,NA,NA,0.189944134078212,NA,NA
"104",2018,"09B000",386,NA,NA,0.160621761658031,0.246113989637306,NA,0.50259067357513,0.0595854922279793,0.49740932642487,NA,0.11139896373057,0.756476683937824,NA,NA
"105",2018,"100302",1083,NA,0.00923361034164358,0.157894736842105,0.499538319482918,0.0701754385964912,0.463527239150508,0.156971375807941,0.536472760849492,0.0757156048014774,0.168975069252078,0.590027700831025,NA,NA
"106",2018,"100304",562,NA,NA,0.103202846975089,0.660142348754448,NA,0.414590747330961,0.0409252669039146,0.585409252669039,0.0747330960854092,0.137010676156584,0.766903914590747,NA,NA
"107",2018,"100308",62,NA,NA,NA,0.725806451612903,NA,0.258064516129032,NA,0.741935483870968,NA,0.435483870967742,0.790322580645161,NA,NA
"108",2018,"100309",1102,0.0108892921960073,NA,0.187840290381125,0.658802177858439,0.0453720508166969,0.490018148820327,0.0907441016333938,0.509981851179673,0.0326678765880218,0.181488203266788,0.674228675136116,NA,NA
"109",2018,"100310",580,NA,NA,0.175862068965517,0.76551724137931,0.179310344827586,0.53448275862069,0.268965517241379,0.46551724137931,0.0413793103448276,0.158620689655172,0.493103448275862,NA,NA
"110",2018,"100316",1909,0.00785751702462022,0.00680984808800419,0.202200104766894,0.599266631744369,0.0633839706652698,0.49083289680461,0.15819800942902,0.50916710319539,0.0555264536406496,0.160817181770561,0.569408067050812,NA,NA
"111",2018,"100320",756,0.0132275132275132,NA,0.234126984126984,0.837301587301587,0.170634920634921,0.503968253968254,0.264550264550265,0.496031746031746,0.0701058201058201,0.169312169312169,0.414021164021164,NA,NA
"112",2018,"100332",1497,0.00734802939211757,0.00868403473613895,0.148296593186373,0.597862391449566,0.111556446225785,0.474949899799599,0.204408817635271,0.525050100200401,0.0293921175684703,0.126920507682031,0.60187040748163,NA,NA
"113",2018,"100335",1636,NA,0.00611246943765281,0.0721271393643032,0.507946210268949,0.0305623471882641,0.518337408312958,0.0727383863080685,0.481662591687042,0.0696821515892421,0.111246943765281,0.771393643031785,NA,NA
"114",2018,"100336",751,NA,NA,0.0825565912117177,0.476697736351531,0.0452729693741678,0.499334221038615,0.0466045272969374,0.500665778961385,0.0399467376830892,0.163781624500666,0.806924101198402,NA,NA
"115",2018,"100338",747,NA,NA,0.235609103078983,0.812583668005355,0.0937081659973226,0.472556894243641,0.149933065595716,0.527443105756359,0.0495314591700134,0.224899598393574,0.56091030789826,NA,NA
"116",2018,"100339",650,0.0184615384615385,NA,0.116923076923077,0.558461538461538,0.0584615384615385,0.395384615384615,0.107692307692308,0.604615384615385,0.06,0.152307692307692,0.693846153846154,NA,NA
"117",2018,"100340",714,NA,0.0140056022408964,0.0980392156862745,0.563025210084034,0.112044817927171,0.494397759103641,0.179271708683473,0.505602240896359,0.046218487394958,0.15546218487395,0.65266106442577,NA,NA
"118",2018,"100342",641,NA,NA,0.152886115444618,0.684867394695788,0.0499219968798752,0.522620904836194,0.0873634945397816,0.477379095163807,0.0483619344773791,0.157566302652106,0.700468018720749,NA,NA
"119",2018,"100344",848,NA,NA,0.0931603773584906,0.67688679245283,0.132075471698113,0.439858490566038,0.222877358490566,0.560141509433962,0.0259433962264151,0.127358490566038,0.652122641509434,NA,NA
"120",2018,"100LEA",13538,0.00790367853449549,0.00613089082582361,0.14847097060127,0.618481311862904,0.078815186881371,0.481902792140641,0.145590190574679,0.518097207859359,0.0511892450879007,0.154823459890678,0.639311567439799,NA,NA
"121",2018,"10A000",1277,NA,0.0117462803445576,0.111981205951449,0.118245888801879,0.0172278778386844,0.553641346906813,0.0790916209866876,0.446358653093187,0.0712607674236492,0.120595144870791,0.717306186374315,NA,NA
"122",2018,"10B000",247,NA,NA,0.0566801619433198,0.0890688259109312,NA,0.562753036437247,0.048582995951417,0.437246963562753,0.0728744939271255,0.0769230769230769,0.801619433198381,NA,NA
"123",2018,"110306",1211,NA,0.0189925681255161,0.148637489677952,0.591246903385632,0.10074318744839,0.504541701073493,0.141205615194055,0.495458298926507,0.0685383980181668,0.157720891824938,0.617671345995045,NA,NA
"124",2018,"110308",104,NA,NA,NA,0.653846153846154,NA,0.461538461538462,NA,0.538461538461538,NA,0.25,0.923076923076923,NA,NA
"125",2018,"110318",549,NA,NA,0.0236794171220401,0.522768670309654,0.0327868852459016,0.477231329690346,0.0837887067395264,0.522768670309654,0.0546448087431694,0.171220400728597,0.832422586520947,NA,NA
"126",2018,"110320",208,NA,NA,NA,0.480769230769231,NA,0.596153846153846,0.0480769230769231,0.403846153846154,NA,0.211538461538462,0.884615384615385,NA,NA
"127",2018,"110324",362,NA,NA,NA,0.679558011049724,0.160220994475138,0.475138121546961,0.204419889502762,0.524861878453039,NA,0.204419889502762,0.734806629834254,NA,NA
"128",2018,"110326",1323,NA,0.0196523053665911,0.0264550264550265,0.328798185941043,0.0393046107331822,0.489795918367347,0.0665154950869237,0.510204081632653,0.0347694633408919,0.155706727135299,0.846560846560847,NA,NA
"129",2018,"110332",357,NA,NA,0.0588235294117647,0.507002801120448,0.109243697478992,0.473389355742297,0.112044817927171,0.526610644257703,0.0784313725490196,0.198879551820728,0.739495798319328,NA,NA
"130",2018,"110338",1245,0.00883534136546185,NA,0.0465863453815261,0.543775100401606,0.065863453815261,0.4714859437751,0.12289156626506,0.5285140562249,0.0305220883534137,0.145381526104418,0.784738955823293,NA,NA
"131",2018,"110342",1682,NA,NA,0.0772889417360285,0.699762187871581,0.191438763376932,0.483947681331748,0.239595719381688,0.516052318668252,0.0582639714625446,0.177170035671819,0.598692033293698,NA,NA
"132",2018,"110348",308,NA,NA,0.175324675324675,0.5,0.298701298701299,0.441558441558442,0.402597402597403,0.558441558441558,0.038961038961039,0.11038961038961,0.37012987012987,NA,NA
"133",2018,"110356",850,NA,0.0164705882352941,NA,0.42,0.0541176470588235,0.532941176470588,0.0976470588235294,0.467058823529412,0.0376470588235294,0.129411764705882,0.834117647058824,NA,NA
"134",2018,"110366",420,NA,0.0333333333333333,0.0428571428571429,0.314285714285714,0.0571428571428571,0.533333333333333,0.0904761904761905,0.466666666666667,0.0857142857142857,0.104761904761905,0.728571428571429,NA,NA
"135",2018,"110368",473,NA,0.0232558139534884,0.143763213530655,0.452431289640592,0.0507399577167019,0.47568710359408,0.0338266384778013,0.52431289640592,0.0613107822410148,0.13107822410148,0.733615221987315,NA,NA
"136",2018,"110370",370,NA,NA,NA,0.372972972972973,0.102702702702703,0.486486486486487,0.140540540540541,0.513513513513513,NA,0.118918918918919,0.827027027027027,NA,NA
"137",2018,"110372",237,NA,NA,0.270042194092827,0.586497890295359,0.371308016877637,0.468354430379747,0.312236286919831,0.531645569620253,0.0506329113924051,0.151898734177215,0.240506329113924,NA,NA
"138",2018,"110376",382,NA,NA,0.0366492146596859,0.701570680628272,0.0785340314136126,0.50261780104712,0.109947643979058,0.49738219895288,0.0418848167539267,0.162303664921466,0.801047120418848,NA,NA
"139",2018,"110379",496,NA,NA,NA,0.536290322580645,0.133064516129032,0.512096774193548,0.185483870967742,0.487903225806452,0.0483870967741935,0.137096774193548,0.754032258064516,NA,NA
"140",2018,"110381",1396,NA,0.0100286532951289,0.0128939828080229,0.467048710601719,0.076647564469914,0.482091690544413,0.141117478510029,0.517908309455587,0.0308022922636103,0.166189111747851,0.801575931232092,NA,NA
"141",2018,"110382",1503,0.00731869594145043,NA,0.0119760479041916,0.49500998003992,0.102461743180306,0.523619427811045,0.139720558882236,0.476380572188955,0.0139720558882236,0.156353958749168,0.823685961410512,NA,NA
"142",2018,"110384",549,NA,NA,0.316939890710383,0.520947176684882,0.160291438979964,0.510018214936248,0.224043715846995,0.489981785063752,0.0437158469945355,0.1183970856102,0.409836065573771,NA,NA
"143",2018,"110388",142,NA,NA,NA,0.690140845070423,NA,0.563380281690141,NA,0.436619718309859,NA,0.211267605633803,0.887323943661972,NA,NA
"144",2018,"110401",1522,NA,0.0131406044678055,0.0223390275952694,0.598554533508541,0.126149802890933,0.456636005256242,0.181340341655716,0.543363994743758,0.0459921156373193,0.121550591327201,0.732588699080158,NA,NA
"145",2018,"110408",447,NA,NA,0.10738255033557,0.733780760626398,0.196868008948546,0.469798657718121,0.25503355704698,0.530201342281879,NA,0.138702460850112,0.615212527964206,NA,NA
"146",2018,"110410",504,NA,0.0238095238095238,0.126984126984127,0.638888888888889,0.273809523809524,0.476190476190476,0.341269841269841,0.523809523809524,0.0595238095238095,0.111111111111111,0.444444444444444,NA,NA
"147",2018,"110412",529,NA,NA,0.0396975425330813,0.674858223062382,0.183364839319471,0.497164461247637,0.226843100189036,0.502835538752363,0.0415879017013233,0.192816635160681,0.680529300567108,NA,NA
"148",2018,"110420",1388,NA,0.0482708933717579,0.0900576368876081,0.440922190201729,0.13328530259366,0.507204610951009,0.229827089337176,0.492795389048991,0.0626801152737752,0.127521613832853,0.565561959654179,NA,NA
"149",2018,"110422",613,NA,0.0358890701468189,0.172920065252855,0.497553017944535,0.140293637846656,0.486133768352365,0.163132137030995,0.513866231647635,0.0587275693311582,0.107667210440457,0.562805872756933,NA,NA
"150",2018,"110425",1627,NA,NA,0.0405654578979717,0.618315918869084,0.128457283343577,0.474492931776275,0.173325138291334,0.525507068223725,0.0276582667486171,0.166564228641672,0.751690227412416,NA,NA
"151",2018,"110428",462,NA,NA,NA,0.406926406926407,0.0822510822510823,0.510822510822511,0.108225108225108,0.489177489177489,0.038961038961039,0.147186147186147,0.818181818181818,NA,NA
"152",2018,"110436",428,NA,NA,NA,0.630841121495327,0.205607476635514,0.504672897196262,0.186915887850467,0.495327102803738,0.0420560747663551,0.0700934579439252,0.742990654205608,NA,NA
"153",2018,"110444",118,NA,NA,NA,0.533898305084746,0.186440677966102,0.372881355932203,0.23728813559322,0.627118644067797,NA,0.135593220338983,0.576271186440678,NA,NA
"154",2018,"110450",1848,NA,0.0303030303030303,0.106060606060606,0.483225108225108,0.170454545454545,0.457251082251082,0.237554112554113,0.542748917748918,0.0708874458874459,0.136904761904762,0.550324675324675,NA,NA
"155",2018,"110451",1810,NA,0.00883977900552486,0.0961325966850829,0.721546961325967,0.195027624309392,0.533701657458564,0.248066298342541,0.466298342541436,0.0337016574585635,0.141988950276243,0.593922651933702,NA,NA
"156",2018,"110LEA",25463,0.00428072104622393,0.0134705258610533,0.0689235361112202,0.545733024388328,0.128303813376271,0.491654557593371,0.175666653575777,0.508345442406629,0.0443781172681931,0.147272513058163,0.688410635039076,NA,NA
"157",2018,"111304",340,NA,NA,0.261764705882353,0.670588235294118,0.0970588235294118,0.455882352941176,0.141176470588235,0.544117647058823,0.132352941176471,0.164705882352941,0.455882352941176,NA,NA
"158",2018,"111306",591,NA,0.0203045685279188,0.181049069373942,0.294416243654822,0.0169204737732657,0.529610829103215,0.109983079526227,0.470389170896785,0.0609137055837563,0.135363790186125,0.619289340101523,NA,NA
"159",2018,"111312",570,NA,NA,0.166666666666667,0.380701754385965,0.0350877192982456,0.515789473684211,0.0859649122807018,0.484210526315789,0.0596491228070175,0.0859649122807018,0.664912280701754,NA,NA
"160",2018,"111332",523,NA,NA,0.18546845124283,0.390057361376673,0.0554493307839388,0.470363288718929,0.0688336520076482,0.529636711281071,0.0554493307839388,0.133843212237094,0.652007648183556,NA,NA
"161",2018,"111356",1736,NA,0.00921658986175115,0.199308755760369,0.392281105990783,0.0357142857142857,0.485023041474654,0.0887096774193548,0.514976958525346,0.0789170506912442,0.152073732718894,0.618087557603687,NA,NA
"162",2018,"111360",530,NA,NA,0.2,0.460377358490566,0.0622641509433962,0.454716981132075,0.111320754716981,0.545283018867925,0.0452830188679245,0.147169811320755,0.632075471698113,NA,NA
"163",2018,"111369",154,NA,NA,0.272727272727273,0.441558441558442,NA,0.428571428571429,0.0909090909090909,0.571428571428571,0.0909090909090909,0.220779220779221,0.519480519480519,NA,NA
"164",2018,"111LEA",4444,NA,0.0101260126012601,0.198469846984698,0.408640864086409,0.0420792079207921,0.485373537353735,0.0956345634563456,0.514626462646265,0.0717821782178218,0.141989198919892,0.614086408640864,NA,NA
"165",2018,"11A000",694,NA,NA,0.0187319884726225,0.102305475504323,NA,0.463976945244957,0.0417867435158501,0.536023054755043,0.0403458213256484,0.181556195965418,0.899135446685879,NA,NA
"166",2018,"11B000",652,NA,NA,NA,0.167177914110429,NA,0.52760736196319,0.0843558282208589,0.47239263803681,0.0552147239263804,0.188650306748466,0.834355828220859,NA,NA
"167",2018,"11C000",997,NA,0.0240722166499498,0.0170511534603811,0.0682046138415246,0.0200601805416249,0.449348044132397,0.0772316950852558,0.550651955867603,0.0521564694082247,0.138415245737212,0.824473420260782,NA,NA
"168",2018,"11D000",607,NA,NA,NA,0.130148270181219,NA,0.42174629324547,0.0609555189456343,0.57825370675453,0.0642504118616145,0.105436573311367,0.85667215815486,NA,NA
"169",2018,"11K000",270,NA,0.037037037037037,0.27037037037037,0.122222222222222,NA,0.481481481481481,0.0888888888888889,0.518518518518518,0.0740740740740741,0.211111111111111,0.511111111111111,NA,NA
"170",2018,"120304",218,NA,0.055045871559633,0.055045871559633,0.747706422018349,0.160550458715596,0.394495412844037,0.178899082568807,0.605504587155963,0.073394495412844,0.220183486238532,0.637614678899083,NA,NA
"171",2018,"120308",59,NA,NA,NA,0.847457627118644,0.186440677966102,0.288135593220339,NA,0.711864406779661,NA,0.406779661016949,0.593220338983051,NA,NA
"172",2018,"120312",552,NA,0.0942028985507246,0.0380434782608696,0.619565217391304,0.13768115942029,0.492753623188406,0.110507246376812,0.507246376811594,0.0380434782608696,0.186594202898551,0.719202898550725,NA,NA
"173",2018,"120315",1479,NA,0.0628803245436105,NA,0.568627450980392,0.0831643002028398,0.482758620689655,0.0716700473292765,0.517241379310345,0.0466531440162272,0.137254901960784,0.812711291413117,NA,NA
"174",2018,"120316",547,NA,0.0182815356489945,0.0987202925045704,0.780621572212066,0.440585009140768,0.449725776965265,0.583180987202925,0.550274223034735,0.0438756855575868,0.140767824497258,0.255941499085923,NA,NA
"175",2018,"120320",422,NA,0.0995260663507109,NA,0.682464454976303,0.106635071090047,0.450236966824645,0.0355450236966825,0.549763033175355,0.0568720379146919,0.234597156398104,0.800947867298578,NA,NA
"176",2018,"120324",514,NA,0.0894941634241245,0.0992217898832685,0.678988326848249,0.0914396887159533,0.472762645914397,0.0603112840466926,0.527237354085603,0.0992217898832685,0.262645914396887,0.643968871595331,NA,NA
"177",2018,"120334",1180,NA,0.0822033898305085,0.0347457627118644,0.498305084745763,0.0974576271186441,0.503389830508475,0.0940677966101695,0.496610169491525,0.0661016949152542,0.116101694915254,0.716101694915254,NA,NA
"178",2018,"120338",398,NA,0.0653266331658292,NA,0.658291457286432,0.0728643216080402,0.447236180904523,0.0552763819095477,0.552763819095477,0.120603015075377,0.163316582914573,0.738693467336683,NA,NA
"179",2018,"120340",643,NA,NA,0.0855365474339036,0.936236391912908,0.584758942457232,0.503888024883359,0.692068429237947,0.496111975116641,0.0559875583203732,0.150855365474339,0.150855365474339,NA,NA
"180",2018,"120344",345,NA,0.110144927536232,NA,0.611594202898551,0.144927536231884,0.533333333333333,0.11304347826087,0.466666666666667,NA,0.156521739130435,0.753623188405797,NA,NA
"181",2018,"120350",1297,NA,0.0585967617579029,0.0300693909020817,0.491133384734002,0.094834232845027,0.528912875867386,0.1272166538165,0.471087124132614,0.0531996915959908,0.137239784117194,0.729375481881264,NA,NA
"182",2018,"120352",72,NA,NA,NA,0.513888888888889,0.138888888888889,0.402777777777778,NA,0.597222222222222,NA,1,0.791666666666667,NA,NA
"183",2018,"120360",341,NA,0.032258064516129,NA,0.618768328445748,0.0645161290322581,0.49266862170088,0.0645161290322581,0.50733137829912,0.0410557184750733,0.190615835777126,0.850439882697947,NA,NA
"184",2018,"120364",545,NA,NA,0.122935779816514,0.524770642201835,0.0238532110091743,0.444036697247706,0.0532110091743119,0.555963302752294,0.121100917431193,0.163302752293578,0.689908256880734,NA,NA
"185",2018,"120368",495,NA,0.0888888888888889,NA,0.656565656565657,0.143434343434343,0.551515151515152,0.117171717171717,0.448484848484848,0.0343434343434343,0.151515151515152,0.743434343434343,NA,NA
"186",2018,"120372",249,NA,0.0763052208835341,NA,0.421686746987952,0.0522088353413655,0.449799196787149,NA,0.550200803212851,NA,0.0963855421686747,0.875502008032129,NA,NA
"187",2018,"120374",555,NA,0.0252252252252252,NA,0.482882882882883,0.0306306306306306,0.473873873873874,0.0612612612612613,0.526126126126126,0.0738738738738739,0.176576576576577,0.823423423423423,NA,NA
"188",2018,"120376",1139,NA,0.077260755048288,0.107111501316945,0.581211589113257,0.0597014925373134,0.481123792800702,0.0570676031606673,0.518876207199298,0.100965759438104,0.190517998244074,0.655838454784899,NA,NA
"189",2018,"120380",499,NA,0.0541082164328657,NA,0.595190380761523,0.0480961923847695,0.490981963927856,0.0801603206412826,0.509018036072144,0.0741482965931864,0.176352705410822,0.775551102204409,NA,NA
"190",2018,"120386",440,NA,0.131818181818182,NA,0.652272727272727,0.0863636363636364,0.379545454545455,0.0681818181818182,0.620454545454545,0.0636363636363636,0.145454545454545,0.715909090909091,NA,NA
"191",2018,"120390",1087,NA,0.0165593376264949,0.0634774609015639,0.800367985280589,0.373505059797608,0.425022999080037,0.528058877644894,0.574977000919963,0.0533578656853726,0.134314627414903,0.334866605335787,NA,NA
"192",2018,"120LEA",13076,NA,0.0602630773936984,0.0458091159375956,0.620067298868155,0.149357601713062,0.477439583970633,0.170235546038544,0.522560416029367,0.0634750688283879,0.165035178953809,0.657922912205567,NA,NA
"193",2018,"12A000",336,NA,NA,0.0446428571428571,0.130952380952381,NA,0.556547619047619,0.0297619047619048,0.443452380952381,0.068452380952381,0.130952380952381,0.851190476190476,NA,NA
"194",2018,"130304",1088,NA,NA,0.147058823529412,0.592830882352941,0.159926470588235,0.472426470588235,0.267463235294118,0.527573529411765,0.0238970588235294,0.130514705882353,0.545036764705882,NA,NA
"195",2018,"130308",718,NA,0.0139275766016713,0.0710306406685237,0.469359331476323,0.13091922005571,0.561281337047354,0.137883008356546,0.438718662952646,0.0682451253481894,0.128133704735376,0.704735376044568,NA,NA
"196",2018,"130309",469,NA,NA,0.157782515991471,0.304904051172708,0.204690831556503,0.460554371002132,0.29637526652452,0.539445628997868,0.0746268656716418,0.134328358208955,0.460554371002132,NA,NA
"197",2018,"130311",597,0.016750418760469,0.0804020100502513,0.241206030150754,0.514237855946399,0.184254606365159,0.465661641541039,0.247906197654941,0.534338358458961,0.0485762144053601,0.122278056951424,0.365159128978224,NA,NA
"198",2018,"130312",1364,NA,0.129765395894428,0.196480938416422,0.0813782991202346,0.0520527859237537,0.494868035190616,0.0417888563049853,0.505131964809384,0.0373900293255132,0.0909090909090909,0.587976539589443,NA,NA
"199",2018,"130313",2087,NA,0.020603737422137,0.290848107331097,0.429803545759463,0.170579779587925,0.478198370867274,0.287014853857211,0.521801629132726,0.0483948251078103,0.136080498322952,0.35026353617633,NA,NA
"200",2018,"130315",1394,NA,0.119081779053085,0.167862266857963,0.266857962697274,0.0774748923959828,0.432568149210904,0.124103299856528,0.567431850789096,0.0616929698708752,0.0509325681492109,0.521520803443329,NA,NA
"201",2018,"130317",128,NA,NA,0.4609375,0.6328125,0.109375,0.1484375,0.1875,0.8515625,NA,0.140625,0.3515625,NA,NA
"202",2018,"130318",2456,0.00447882736156352,0.010586319218241,0.238192182410423,0.539087947882736,0.107899022801303,0.479641693811075,0.221905537459283,0.520358306188925,0.0578175895765472,0.144951140065147,0.464169381107492,NA,NA
"203",2018,"130319",1231,NA,0.194151096669374,0.163281884646629,0.082859463850528,0.0593013809910642,0.474411047928513,0.0796100731112916,0.525588952071487,0.0357432981316003,0.0690495532087734,0.517465475223396,NA,NA
"204",2018,"130320",3056,0.00523560209424084,0.0801701570680628,0.199934554973822,0.138743455497382,0.0281413612565445,0.503926701570681,0.0710078534031414,0.496073298429319,0.0454842931937173,0.074934554973822,0.593913612565445,NA,NA
"205",2018,"130321",922,NA,0.0238611713665944,0.237527114967462,0.517353579175705,0.212581344902386,0.46529284164859,0.313449023861171,0.53470715835141,0.0314533622559653,0.110629067245119,0.386117136659436,NA,NA
"206",2018,"130322",832,NA,NA,0.0216346153846154,0.34375,0.015625,0.490384615384615,0.0384615384615385,0.509615384615385,0.0192307692307692,0.127403846153846,0.914663461538462,NA,NA
"207",2018,"130323",1477,NA,NA,0.044685172647258,0.379823967501693,0.044008124576845,0.482058226134056,0.0825998645903859,0.517941773865945,0.044685172647258,0.1354096140826,0.82396750169262,NA,NA
"208",2018,"130325",865,NA,0.0289017341040462,0.143352601156069,0.357225433526012,0.0566473988439306,0.504046242774566,0.0947976878612717,0.495953757225434,0.0404624277456647,0.119075144508671,0.684393063583815,NA,NA
"209",2018,"130327",2034,NA,0.0216322517207473,0.247295968534907,0.51622418879056,0.11701081612586,0.480825958702065,0.194690265486726,0.519174041297935,0.0619469026548673,0.116519174041298,0.467059980334317,NA,NA
"210",2018,"130328",316,NA,NA,0.474683544303797,0.550632911392405,0.14873417721519,0.493670886075949,0.208860759493671,0.506329113924051,0.10126582278481,0.0917721518987342,0.215189873417722,NA,NA
"211",2018,"130329",870,NA,NA,0.27816091954023,0.663218390804598,0.168965517241379,0.513793103448276,0.264367816091954,0.486206896551724,0.0689655172413793,0.160919540229885,0.371264367816092,NA,NA
"212",2018,"130330",428,NA,NA,0.196261682242991,0.47196261682243,0.100467289719626,0.348130841121495,0.144859813084112,0.651869158878505,NA,0.19392523364486,0.633177570093458,NA,NA
"213",2018,"130331",1087,NA,0.0689972401103956,0.190432382704692,0.334866605335787,0.0717571297148114,0.507819687212511,0.103035878564857,0.492180312787489,0.0607175712971481,0.0901563937442502,0.576816927322907,NA,NA
"214",2018,"130337",1909,NA,0.109481403876375,0.173913043478261,0.13200628601362,0.0429544264012572,0.482451545311681,0.0948140387637506,0.517548454688318,0.0460974332111053,0.0832896804609743,0.57255107386066,NA,NA
"215",2018,"130338",1288,NA,0.046583850931677,0.15916149068323,0.534937888198758,0.28804347826087,0.527950310559006,0.336180124223602,0.472049689440994,0.0403726708074534,0.107142857142857,0.402950310559006,NA,NA
"216",2018,"130340",966,NA,NA,0.364389233954451,0.438923395445135,0.157349896480331,0.504140786749482,0.236024844720497,0.495859213250518,0.05175983436853,0.13768115942029,0.335403726708075,NA,NA
"217",2018,"130342",886,NA,NA,0.278781038374718,0.459367945823928,0.213318284424379,0.461625282167043,0.272009029345372,0.538374717832957,0.0530474040632054,0.164785553047404,0.388261851015801,NA,NA
"218",2018,"130344",751,NA,NA,0.330226364846871,0.533954727030626,0.263648468708389,0.470039946737683,0.340878828229028,0.529960053262317,0.0386151797603196,0.155792276964048,0.284953395472703,NA,NA
"219",2018,"130345",1334,0.00824587706146927,0.0592203898050975,0.187406296851574,0.263868065967017,0.0809595202398801,0.488005997001499,0.149175412293853,0.511994002998501,0.0239880059970015,0.122188905547226,0.569715142428786,NA,NA
"220",2018,"130346",2761,0.00941687794277436,0.0637450199203187,0.206084751901485,0.211517566099239,0.0474465773270554,0.473741398044187,0.0825787758058674,0.526258601955813,0.0405650126765665,0.0836653386454183,0.597609561752988,NA,NA
"221",2018,"130355",2304,NA,0.0160590277777778,0.219618055555556,0.490017361111111,0.164930555555556,0.507378472222222,0.290364583333333,0.492621527777778,0.0394965277777778,0.115017361111111,0.432291666666667,NA,NA
"222",2018,"130LEA",35620,0.00393037619314992,0.0485401459854015,0.205390230207748,0.364430095451993,0.110443571027513,0.484418865805727,0.174564851207187,0.515581134194273,0.0460976979225154,0.111931499157777,0.519230769230769,NA,NA
"223",2018,"132308",696,NA,0.0186781609195402,0.330459770114943,0.406609195402299,0.126436781609195,0.479885057471264,0.198275862068966,0.520114942528736,0.0574712643678161,0.10632183908046,0.385057471264368,NA,NA
"224",2018,"132312",409,NA,NA,0.222493887530562,0.481662591687042,0.23960880195599,0.447432762836186,0.405867970660147,0.552567237163814,0.0562347188264059,0.122249388753056,0.305623471882641,NA,NA
"225",2018,"132314",625,NA,0.016,0.4256,0.3696,0.192,0.544,0.2896,0.456,0.0432,0.136,0.2256,NA,NA
"226",2018,"132328",549,NA,NA,0.240437158469945,0.429872495446266,0.204007285974499,0.459016393442623,0.29143897996357,0.540983606557377,0.0546448087431694,0.14936247723133,0.395264116575592,NA,NA
"227",2018,"132330",2744,NA,0.0171282798833819,0.264212827988338,0.387390670553936,0.197157434402332,0.502551020408163,0.340743440233236,0.497448979591837,0.048469387755102,0.139577259475219,0.326530612244898,NA,NA
"228",2018,"132332",424,NA,NA,0.22877358490566,0.471698113207547,0.297169811320755,0.429245283018868,0.415094339622642,0.570754716981132,0.0330188679245283,0.113207547169811,0.306603773584906,NA,NA
"229",2018,"132336",417,NA,NA,0.136690647482014,0.39568345323741,0.266187050359712,0.429256594724221,0.515587529976019,0.570743405275779,0.0887290167865707,0.119904076738609,0.254196642685851,NA,NA
"230",2018,"132LEA",5864,0.00324010914051842,0.0138130968622101,0.272510231923602,0.405013642564802,0.203956343792633,0.485845839017735,0.336118690313779,0.514154160982265,0.0518417462482947,0.131650750341064,0.321111869031378,NA,NA
"231",2018,"13A000",1020,NA,0.0705882352941176,0.308823529411765,0.129411764705882,0.0735294117647059,0.522549019607843,0.129411764705882,0.477450980392157,0.0617647058823529,0.0941176470588235,0.427450980392157,NA,NA
"232",2018,"13B000",1097,NA,0.0528714676390155,0.360072926162261,0.306289881494986,0.0601640838650866,0.494986326344576,0.154968094804011,0.505013673655424,0.081130355515041,0.104831358249772,0.349134001823154,NA,NA
"233",2018,"13C000",560,NA,NA,0.7375,0.517857142857143,0.0928571428571429,0.501785714285714,0.153571428571429,0.498214285714286,0.0571428571428571,0.117857142857143,0.0446428571428571,NA,NA
"234",2018,"13D000",537,NA,NA,0.355679702048417,0.538175046554935,0.0782122905027933,0.480446927374302,0.175046554934823,0.519553072625698,0.0521415270018622,0.119180633147114,0.404096834264432,NA,NA
"235",2018,"140304",482,NA,NA,NA,0.639004149377593,0.033195020746888,0.512448132780083,0.0560165975103734,0.487551867219917,0.033195020746888,0.153526970954357,0.910788381742739,NA,NA
"236",2018,"140306",91,NA,NA,NA,0.571428571428571,NA,0.230769230769231,NA,0.769230769230769,NA,0.395604395604396,0.747252747252747,NA,NA
"237",2018,"140308",548,NA,NA,NA,0.598540145985402,NA,0.525547445255474,0.0273722627737226,0.474452554744526,0.0383211678832117,0.140510948905109,0.921532846715328,NA,NA
"238",2018,"140312",577,NA,NA,0.202772963604853,0.724436741767764,0.237435008665511,0.547660311958406,0.299826689774697,0.452339688041594,0.0675909878682842,0.109185441941075,0.422876949740035,NA,NA
"239",2018,"140316",532,NA,NA,NA,0.524436090225564,NA,0.503759398496241,NA,0.496240601503759,0.0507518796992481,0.139097744360902,0.922932330827068,NA,NA
"240",2018,"140324",612,NA,NA,0.107843137254902,0.462418300653595,0.0473856209150327,0.418300653594771,0.0980392156862745,0.581699346405229,0.104575163398693,0.140522875816993,0.684640522875817,NA,NA
"241",2018,"140332",1197,NA,NA,0.101921470342523,0.734335839598998,0.101921470342523,0.502923976608187,0.201336675020886,0.497076023391813,0.064327485380117,0.143692564745196,0.628237259816207,NA,NA
"242",2018,"140336",1351,NA,0.0111028867505551,0.0074019245003701,0.478164322723908,0.0273871206513694,0.472982975573649,0.0592153960029608,0.527017024426351,0.0421909696521095,0.118430792005922,0.880088823094004,NA,NA
"243",2018,"140340",762,NA,NA,0.031496062992126,0.473753280839895,0.0459317585301837,0.44488188976378,0.0905511811023622,0.55511811023622,0.0485564304461942,0.106299212598425,0.821522309711286,NA,NA
"244",2018,"140344",406,NA,NA,NA,0.564039408866995,NA,0.556650246305419,NA,0.443349753694581,NA,0.12807881773399,0.945812807881773,NA,NA
"245",2018,"140352",899,NA,NA,NA,0.582869855394883,0.0478309232480534,0.470522803114572,0.103448275862069,0.529477196885428,0.0556173526140156,0.125695216907675,0.833147942157953,NA,NA
"246",2018,"140356",1470,NA,NA,0.00952380952380952,0.502721088435374,0.0319727891156463,0.510204081632653,0.106122448979592,0.489795918367347,0.0353741496598639,0.110204081632653,0.842857142857143,NA,NA
"247",2018,"140360",244,NA,NA,NA,0.69672131147541,NA,0.532786885245902,0.0860655737704918,0.467213114754098,NA,0.19672131147541,0.872950819672131,NA,NA
"248",2018,"140368",1322,NA,0.0075642965204236,0.118759455370651,0.546898638426626,0.065052950075643,0.517397881996974,0.124054462934947,0.482602118003026,0.0771558245083207,0.128593040847201,0.670953101361573,NA,NA
"249",2018,"140372",491,NA,0.0224032586558045,0.0529531568228106,0.454175152749491,0.0224032586558045,0.470468431771894,0.0855397148676171,0.529531568228106,0.0733197556008147,0.144602851323829,0.765784114052953,NA,NA
"250",2018,"140376",213,NA,NA,NA,0.572769953051643,NA,0.52112676056338,0.0469483568075117,0.47887323943662,0.0469483568075117,0.173708920187793,0.896713615023474,NA,NA
"251",2018,"140384",391,NA,NA,NA,0.588235294117647,0.0562659846547315,0.414322250639386,0.107416879795396,0.585677749360614,0.0485933503836317,0.161125319693095,0.833759590792839,NA,NA
"252",2018,"140388",199,NA,NA,0.0904522613065327,0.638190954773869,NA,0.462311557788945,0.14070351758794,0.537688442211055,0.165829145728643,0.170854271356784,0.603015075376884,NA,NA
"253",2018,"140392",179,NA,NA,0.106145251396648,0.642458100558659,0.139664804469274,0.452513966480447,0.23463687150838,0.547486033519553,0.0614525139664804,0.17877094972067,0.597765363128492,NA,NA
"254",2018,"140396",389,NA,NA,0.10025706940874,0.491002570694087,0.125964010282776,0.465295629820051,0.208226221079692,0.534704370179949,0.0848329048843188,0.215938303341902,0.57840616966581,NA,NA
"255",2018,"140LEA",12355,NA,0.00631323350870093,0.0518008903278025,0.562282476730069,0.054552812626467,0.489437474706597,0.110724403075678,0.510562525293404,0.0571428571428571,0.136705787130716,0.772966410360178,NA,NA
"256",2018,"150308",234,NA,NA,0.0854700854700855,0.264957264957265,NA,0.547008547008547,0.0512820512820513,0.452991452991453,0.0769230769230769,0.11965811965812,0.769230769230769,NA,NA
"257",2018,"150310",1094,NA,NA,0.0813528336380256,0.251371115173675,NA,0.462522851919561,0.0447897623400366,0.537477148080439,0.0594149908592322,0.136197440585009,0.809872029250457,NA,NA
"258",2018,"150312",690,NA,NA,0.12463768115942,0.247826086956522,NA,0.460869565217391,0.0246376811594203,0.539130434782609,0.0869565217391304,0.107246376811594,0.742028985507246,NA,NA
"259",2018,"150LEA",2018,NA,0.00792864222001982,0.0966303270564916,0.251734390485629,NA,0.471754212091179,0.0386521308225966,0.528245787908821,0.0708622398414272,0.124380574826561,0.781962338949455,NA,NA
"260",2018,"160304",97,NA,NA,NA,0.628865979381443,NA,0.319587628865979,NA,0.680412371134021,NA,0.175257731958763,0.876288659793814,NA,NA
"261",2018,"160306",562,NA,NA,0.0320284697508897,0.483985765124555,0.0427046263345196,0.494661921708185,0.110320284697509,0.505338078291815,0.0284697508896797,0.145907473309609,0.809608540925267,NA,NA
"262",2018,"160308",503,NA,NA,0.166998011928429,0.642147117296223,0.0298210735586481,0.508946322067594,0.0874751491053678,0.491053677932406,0.119284294234592,0.200795228628231,0.618290258449304,NA,NA
"263",2018,"160309",35,NA,NA,NA,0.742857142857143,NA,NA,NA,0.942857142857143,NA,0.657142857142857,0.685714285714286,NA,NA
"264",2018,"160310",644,NA,NA,0.180124223602484,0.524844720496894,NA,0.462732919254658,0.0590062111801242,0.537267080745342,0.062111801242236,0.178571428571429,0.66304347826087,NA,NA
"265",2018,"160311",1469,0.00748808713410483,0.010211027910143,0.0170183798502383,0.269571136827774,0.0068073519400953,0.44860449285228,0.0639891082368959,0.55139550714772,0.0442477876106195,0.100068073519401,0.85568413886998,NA,NA
"266",2018,"160316",131,NA,NA,NA,0.465648854961832,NA,0.381679389312977,NA,0.618320610687023,NA,0.145038167938931,0.954198473282443,NA,NA
"267",2018,"160317",735,NA,0.0312925170068027,0.0789115646258503,0.431292517006803,0.102040816326531,0.506122448979592,0.185034013605442,0.493877551020408,0.0530612244897959,0.0952380952380952,0.647619047619048,NA,NA
"268",2018,"160318",1170,NA,0.0136752136752137,0.0606837606837607,0.388034188034188,0.0948717948717949,0.471794871794872,0.141025641025641,0.528205128205128,0.0666666666666667,0.11025641025641,0.709401709401709,NA,NA
"269",2018,"160322",258,NA,NA,0.116279069767442,0.565891472868217,0.0930232558139535,0.457364341085271,0.147286821705426,0.542635658914729,0.0542635658914729,0.162790697674419,0.627906976744186,NA,NA
"270",2018,"160324",853,NA,NA,0.0750293083235639,0.627198124267292,0.0550996483001172,0.483001172332943,0.104337631887456,0.516998827667057,0.063305978898007,0.116060961313013,0.733880422039859,NA,NA
"271",2018,"160326",901,0.0133185349611543,0.0110987791342952,0.0344062153163152,0.598224195338513,0.0355160932297447,0.44173140954495,0.102108768035516,0.55826859045505,0.124306326304107,0.126526082130966,0.714761376248613,NA,NA
"272",2018,"160332",490,NA,NA,NA,0.473469387755102,NA,0.489795918367347,0.0326530612244898,0.510204081632653,0.026530612244898,0.122448979591837,0.930612244897959,NA,NA
"273",2018,"160352",929,NA,0.0193756727664155,0.0182992465016146,0.266953713670614,0.0172228202368138,0.457481162540366,0.0688912809472551,0.542518837459634,0.0419806243272336,0.103336921420883,0.851453175457481,NA,NA
"274",2018,"160LEA",8777,0.00467129998860659,0.0124188219209297,0.0591318218069956,0.449812008658995,0.0412441608750142,0.466104591546086,0.0969579583001025,0.533895408453914,0.0616383730203942,0.126922638714823,0.759826820097983,NA,NA
"275",2018,"16B000",226,NA,NA,NA,0.20353982300885,NA,0.517699115044248,0.0442477876106195,0.482300884955752,0.0752212389380531,0.123893805309735,0.86283185840708,NA,NA
"276",2018,"170334",456,NA,NA,0.265350877192982,0.535087719298246,0.0350877192982456,0.456140350877193,0.0964912280701754,0.543859649122807,0.0548245614035088,0.140350877192982,0.570175438596491,NA,NA
"277",2018,"170338",1299,NA,NA,0.35796766743649,0.659738260200154,0.0277136258660508,0.491147036181678,0.0939183987682833,0.508852963818322,0.0446497305619707,0.153194765204003,0.499615088529638,NA,NA
"278",2018,"170339",380,NA,NA,0.631578947368421,0.560526315789474,NA,0.515789473684211,0.0526315789473684,0.484210526315789,0.0342105263157895,0.184210526315789,0.276315789473684,NA,NA
"279",2018,"170342",358,NA,NA,0.284916201117318,0.432960893854749,0.0307262569832402,0.477653631284916,0.0642458100558659,0.522346368715084,NA,0.226256983240223,0.636871508379888,NA,NA
"280",2018,"170344",264,NA,NA,0.231060606060606,0.481060606060606,NA,0.515151515151515,0.0909090909090909,0.484848484848485,0.071969696969697,0.147727272727273,0.606060606060606,NA,NA
"281",2018,"170LEA",2757,NA,NA,0.358723249909322,0.578890097932535,0.0275661951396445,0.489299963728691,0.0845121508886471,0.510700036271309,0.043525571273123,0.164309031556039,0.508523757707653,NA,NA
"282",2018,"180302",1558,NA,0.0513478818998716,0.0770218228498075,0.529525032092426,0.188703465982028,0.491014120667522,0.301668806161746,0.508985879332478,0.0539152759948652,0.0853658536585366,0.51604621309371,NA,NA
"283",2018,"180304",884,NA,0.0452488687782805,0.0135746606334842,0.523755656108597,0.118778280542986,0.45814479638009,0.136877828054299,0.541855203619909,0.0509049773755656,0.139140271493213,0.751131221719457,NA,NA
"284",2018,"180312",389,NA,NA,0.025706940874036,0.55012853470437,NA,0.519280205655527,0.0359897172236504,0.480719794344473,0.0488431876606684,0.136246786632391,0.858611825192802,NA,NA
"285",2018,"180316",926,NA,0.0971922246220302,0.0464362850971922,0.443844492440605,0.181425485961123,0.465442764578834,0.129589632829374,0.534557235421166,0.0539956803455724,0.0939524838012959,0.667386609071274,NA,NA
"286",2018,"180324",615,NA,0.0439024390243902,0.0959349593495935,0.609756097560976,0.105691056910569,0.499186991869919,0.157723577235772,0.500813008130081,0.0634146341463415,0.159349593495935,0.635772357723577,NA,NA
"287",2018,"180326",669,NA,0.0418535127055306,0.0239162929745889,0.412556053811659,0.137518684603886,0.581464872944694,0.125560538116592,0.418535127055306,0.0343796711509716,0.130044843049327,0.774289985052317,NA,NA
"288",2018,"180332",587,NA,0.0613287904599659,0.0357751277683135,0.592844974446337,0.175468483816014,0.47870528109029,0.201022146507666,0.52129471890971,0.0681431005110733,0.122657580919932,0.633730834752981,NA,NA
"289",2018,"180336",690,NA,0.0434782608695652,0.0405797101449275,0.373913043478261,0.117391304347826,0.482608695652174,0.172463768115942,0.517391304347826,0.072463768115942,0.130434782608696,0.668115942028985,NA,NA
"290",2018,"180342",1188,NA,0.0589225589225589,0.0361952861952862,0.381313131313131,0.0563973063973064,0.457070707070707,0.0580808080808081,0.542929292929293,0.0555555555555556,0.0883838383838384,0.791245791245791,NA,NA
"291",2018,"180343",710,NA,0.164788732394366,0.0408450704225352,0.590140845070423,0.236619718309859,0.480281690140845,0.23943661971831,0.519718309859155,0.052112676056338,0.0901408450704225,0.502816901408451,NA,NA
"292",2018,"180344",683,NA,0.0527086383601757,0.0922401171303075,0.560761346998536,0.111273792093704,0.489019033674963,0.174231332357247,0.510980966325037,0.0527086383601757,0.150805270863836,0.628111273792094,NA,NA
"293",2018,"180346",1031,NA,0.0834141610087294,0.0708050436469447,0.425800193986421,0.081474296799224,0.510184287099903,0.0969932104752667,0.489815712900097,0.0387972841901067,0.0824442289039767,0.709990300678953,NA,NA
"294",2018,"180352",956,NA,0.0115062761506276,0.0230125523012552,0.355648535564854,0.0376569037656904,0.475941422594142,0.0606694560669456,0.524058577405858,0.0313807531380753,0.0951882845188285,0.873430962343096,NA,NA
"295",2018,"180356",1040,NA,0.0605769230769231,0.0394230769230769,0.394230769230769,0.0798076923076923,0.492307692307692,0.0711538461538462,0.507692307692308,0.0740384615384615,0.111538461538462,0.752884615384615,NA,NA
"296",2018,"180360",750,NA,0.0986666666666667,0.0333333333333333,0.605333333333333,0.137333333333333,0.502666666666667,0.128,0.497333333333333,0.036,0.141333333333333,0.704,NA,NA
"297",2018,"180364",1174,NA,0.130323679727428,0.0536626916524702,0.568143100511073,0.135434412265758,0.454003407155026,0.154173764906303,0.545996592844974,0.055366269165247,0.114991482112436,0.601362862010221,NA,NA
"298",2018,"180368",705,NA,NA,0.0184397163120567,0.224113475177305,NA,0.490780141843972,0.0354609929078014,0.509219858156028,0.0382978723404255,0.140425531914894,0.907801418439716,NA,NA
"299",2018,"180372",877,NA,0.0752565564424173,0.14709236031927,0.521094640820981,0.347776510832383,0.458380843785633,0.420752565564424,0.541619156214367,0.0672748004561003,0.133409350057013,0.289623717217788,NA,NA
"300",2018,"180379",716,NA,0.0418994413407821,0.0293296089385475,0.48463687150838,0.175977653631285,0.488826815642458,0.23463687150838,0.511173184357542,0.0460893854748603,0.142458100558659,0.64804469273743,NA,NA
"301",2018,"180380",677,NA,0.085672082717873,0.03397341211226,0.459379615952733,0.0915805022156573,0.528803545051699,0.104874446085672,0.471196454948301,0.0679468242245199,0.147710487444609,0.707533234859675,NA,NA
"302",2018,"180388",534,NA,0.0580524344569288,0.048689138576779,0.769662921348315,0.378277153558052,0.471910112359551,0.48876404494382,0.528089887640449,0.0393258426966292,0.119850187265918,0.365168539325843,NA,NA
"303",2018,"180LEA",17359,NA,0.0653263436833919,0.0506941644103923,0.484993375194424,0.13785356299326,0.486318336309695,0.167290742554295,0.513681663690305,0.0526528025807938,0.116942220173973,0.662710985655856,NA,NA
"304",2018,"181312",1264,NA,0.0221518987341772,0.162183544303797,0.55379746835443,0.200158227848101,0.515822784810127,0.287183544303797,0.484177215189873,0.0727848101265823,0.126582278481013,0.453322784810127,NA,NA
"305",2018,"181316",982,NA,0.0580448065173116,0.224032586558045,0.705702647657841,0.171079429735234,0.430753564154786,0.25050916496945,0.569246435845214,0.0712830957230143,0.172097759674134,0.396130346232179,NA,NA
"306",2018,"181326",508,NA,0.0669291338582677,0.143700787401575,0.417322834645669,0.0866141732283465,0.438976377952756,0.155511811023622,0.561023622047244,0.0669291338582677,0.122047244094488,0.566929133858268,NA,NA
"307",2018,"181332",814,NA,0.0466830466830467,0.273955773955774,0.573710073710074,0.273955773955774,0.495085995085995,0.343980343980344,0.504914004914005,0.0798525798525798,0.136363636363636,0.246928746928747,NA,NA
"308",2018,"181336",399,NA,0.037593984962406,0.135338345864662,0.513784461152882,0.210526315789474,0.466165413533835,0.230576441102757,0.533834586466165,0.0952380952380952,0.115288220551378,0.50125313283208,NA,NA
"309",2018,"181344",582,NA,0.0257731958762887,0.22680412371134,0.673539518900344,0.240549828178694,0.536082474226804,0.274914089347079,0.463917525773196,0.13745704467354,0.101374570446735,0.335051546391753,NA,NA
"310",2018,"181LEA",4549,NA,0.0411079358100681,0.199384480105518,0.586722356561882,0.200483622774236,0.483402945702352,0.268190811167289,0.516597054297648,0.0833150142888547,0.133435919982414,0.405803473290833,NA,NA
"311",2018,"182304",29,NA,NA,NA,0.586206896551724,NA,0.448275862068966,NA,0.551724137931034,NA,1,0.655172413793103,NA,NA
"312",2018,"182321",1385,NA,0.0541516245487365,0.123465703971119,0.623104693140794,0.190613718411552,0.488086642599278,0.31841155234657,0.511913357400722,0.0628158844765343,0.111913357400722,0.44115523465704,NA,NA
"313",2018,"182322",608,NA,0.0542763157894737,0.0805921052631579,0.498355263157895,0.180921052631579,0.457236842105263,0.238486842105263,0.542763157894737,0.0838815789473684,0.100328947368421,0.542763157894737,NA,NA
"314",2018,"182324",458,NA,NA,0.165938864628821,0.718340611353712,0.148471615720524,0.54585152838428,0.248908296943231,0.454148471615721,0.100436681222707,0.163755458515284,0.475982532751092,NA,NA
"315",2018,"182328",619,NA,0.105008077544426,0.116316639741519,0.798061389337641,0.292407108239095,0.495961227786753,0.352180936995153,0.504038772213247,0.0726978998384491,0.119547657512116,0.353796445880452,NA,NA
"316",2018,"182LEA",3099,NA,0.0571151984511133,0.121006776379477,0.64730558244595,0.202000645369474,0.491771539206196,0.297192642787996,0.508228460793804,0.0738948047757341,0.127137786382704,0.450790577605679,NA,NA
"317",2018,"190304",338,NA,NA,NA,0.387573964497041,0.0384615384615385,0.556213017751479,0.0532544378698225,0.443786982248521,NA,0.130177514792899,0.908284023668639,NA,NA
"318",2018,"190308",470,NA,NA,0.0872340425531915,0.531914893617021,0.121276595744681,0.502127659574468,0.163829787234043,0.497872340425532,0.0319148936170213,0.131914893617021,0.717021276595745,NA,NA
"319",2018,"190312",1292,NA,NA,0.124613003095975,0.880030959752322,0.492260061919505,0.511609907120743,0.704334365325077,0.488390092879257,0.0270897832817337,0.178018575851393,0.140866873065015,NA,NA
"320",2018,"190328",1139,NA,0.0158033362598771,0.170324846356453,0.37225636523266,0.0825285338015803,0.47585601404741,0.150131694468832,0.52414398595259,0.0807726075504829,0.121158911325724,0.582967515364355,NA,NA
"321",2018,"190332",431,NA,NA,0.146171693735499,0.445475638051044,0.0626450116009281,0.443155452436195,0.0835266821345708,0.556844547563805,0.0556844547563805,0.120649651972158,0.705336426914153,NA,NA
"322",2018,"190339",1536,NA,0.025390625,0.0651041666666667,0.253255208333333,0.136067708333333,0.526692708333333,0.207682291666667,0.473307291666667,0.044921875,0.0950520833333333,0.652994791666667,NA,NA
"323",2018,"190340",485,NA,NA,0.121649484536082,0.42680412371134,0.105154639175258,0.445360824742268,0.144329896907216,0.554639175257732,0.0371134020618557,0.101030927835052,0.690721649484536,NA,NA
"324",2018,"190341",662,NA,NA,0.0468277945619335,0.380664652567976,0.287009063444109,0.504531722054381,0.354984894259819,0.495468277945619,0.0422960725075529,0.128398791540786,0.545317220543807,NA,NA
"325",2018,"190346",905,NA,0.0154696132596685,0.0662983425414365,0.196685082872928,0.0342541436464088,0.461878453038674,0.0939226519337017,0.538121546961326,0.0662983425414365,0.0541436464088398,0.749171270718232,NA,NA
"326",2018,"190348",414,NA,NA,0.241545893719807,0.410628019323671,0.0579710144927536,0.516908212560386,0.14975845410628,0.483091787439614,0.0917874396135266,0.106280193236715,0.507246376811594,NA,NA
"327",2018,"190350",764,NA,NA,0.155759162303665,0.845549738219895,0.445026178010471,0.460732984293194,0.655759162303665,0.539267015706806,0.0353403141361257,0.112565445026178,0.146596858638743,NA,NA
"328",2018,"190352",624,NA,NA,0.0496794871794872,0.389423076923077,0.092948717948718,0.551282051282051,0.145833333333333,0.448717948717949,0.0705128205128205,0.15224358974359,0.721153846153846,NA,NA
"329",2018,"190370",655,NA,NA,0.155725190839695,0.957251908396947,0.555725190839695,0.523664122137405,0.764885496183206,0.476335877862595,0.0229007633587786,0.102290076335878,0.0534351145038168,NA,NA
"330",2018,"190LEA",9715,0.00174987133299022,0.0102933607822954,0.110138960370561,0.498816263510036,0.215542974781266,0.499022130725682,0.316623777663407,0.500977869274318,0.0482758620689655,0.118064848172928,0.512403499742666,NA,NA
"331",2018,"19A000",598,NA,NA,0.102006688963211,0.12876254180602,NA,0.566889632107023,0.0367892976588629,0.433110367892977,0.0568561872909699,0.088628762541806,0.804347826086957,NA,NA
"332",2018,"19B000",544,NA,0.0202205882352941,0.0625,NA,NA,0.470588235294118,0.0533088235294118,0.529411764705882,0.0349264705882353,0.174632352941176,0.814338235294118,NA,NA
"333",2018,"19C000",309,NA,NA,NA,NA,NA,0.517799352750809,0.0809061488673139,0.482200647249191,0.0938511326860841,0.155339805825243,0.776699029126214,NA,NA
"334",2018,"200304",272,NA,NA,NA,0.389705882352941,0.0367647058823529,0.522058823529412,0.0882352941176471,0.477941176470588,0.0588235294117647,0.183823529411765,0.816176470588235,NA,NA
"335",2018,"200310",545,NA,NA,NA,0.315596330275229,0.0495412844036697,0.477064220183486,0.11743119266055,0.522935779816514,0.073394495412844,0.161467889908257,0.785321100917431,NA,NA
"336",2018,"200312",265,NA,NA,NA,0.324528301886792,NA,0.49811320754717,NA,0.50188679245283,NA,0.20377358490566,0.954716981132075,NA,NA
"337",2018,"200320",282,NA,NA,NA,0.358156028368794,0.0460992907801418,0.5,0.152482269503546,0.5,NA,0.202127659574468,0.819148936170213,NA,NA
"338",2018,"200322",17,NA,NA,NA,0.588235294117647,NA,NA,NA,0.764705882352941,NA,0.647058823529412,0.882352941176471,NA,NA
"339",2018,"200324",556,0.0215827338129496,0.0197841726618705,0.0197841726618705,0.366906474820144,NA,0.489208633093525,0.026978417266187,0.510791366906475,0.0629496402877698,0.199640287769784,0.848920863309353,NA,NA
"340",2018,"200330",755,NA,0.0132450331125828,0.0278145695364238,0.343046357615894,NA,0.450331125827815,0.0357615894039735,0.549668874172185,0.0344370860927152,0.154966887417219,0.878145695364238,NA,NA
"341",2018,"200332",149,NA,NA,NA,0.375838926174497,NA,0.530201342281879,0.0671140939597315,0.469798657718121,NA,0.194630872483221,0.852348993288591,NA,NA
"342",2018,"200336",439,NA,NA,NA,0.430523917995444,NA,0.469248291571754,0.0364464692482916,0.530751708428246,0.0478359908883827,0.225512528473804,0.899772209567198,NA,NA
"343",2018,"200LEA",3280,0.00762195121951219,0.00945121951219512,0.0152439024390244,0.360670731707317,0.0207317073170732,0.480487804878049,0.063109756097561,0.519512195121951,0.0475609756097561,0.18780487804878,0.855487804878049,NA,NA
"344",2018,"20A000",279,NA,NA,NA,0.272401433691756,NA,0.537634408602151,0.0860215053763441,0.462365591397849,0.03584229390681,0.3584229390681,0.845878136200717,NA,NA
"345",2018,"210304",1003,NA,NA,0.449651046859422,0.586241276171486,0.0348953140578265,0.498504486540379,0.0578265204386839,0.501495513459621,0.0259222333000997,0.129611166500499,0.464606181455633,NA,NA
"346",2018,"210306",1196,NA,NA,0.442307692307692,0.666387959866221,0.0334448160535117,0.5,0.0760869565217391,0.5,0.0459866220735786,0.117056856187291,0.433946488294314,NA,NA
"347",2018,"210LEA",2199,NA,NA,0.445657116871305,0.629831741700773,0.034106412005457,0.499317871759891,0.0677580718508413,0.500682128240109,0.0368349249658936,0.122783083219645,0.447930877671669,NA,NA
"348",2018,"220308",408,NA,NA,NA,0.563725490196078,0.0686274509803922,0.431372549019608,0.107843137254902,0.568627450980392,NA,0.151960784313725,0.862745098039216,NA,NA
"349",2018,"220312",1020,0.0107843137254902,NA,NA,0.545098039215686,0.0343137254901961,0.502941176470588,0.0666666666666667,0.497058823529412,0.0205882352941176,0.147058823529412,0.88921568627451,NA,NA
"350",2018,"220LEA",1428,0.00910364145658263,NA,0.007703081232493,0.550420168067227,0.0441176470588235,0.48249299719888,0.0784313725490196,0.51750700280112,0.0189075630252101,0.148459383753501,0.881652661064426,NA,NA
"351",2018,"230304",360,NA,NA,0.122222222222222,0.427777777777778,0.0333333333333333,0.488888888888889,0.0555555555555556,0.511111111111111,0.0777777777777778,0.172222222222222,0.722222222222222,NA,NA
"352",2018,"230308",596,NA,NA,0.114093959731544,0.533557046979866,0.0335570469798658,0.49496644295302,0.0503355704697987,0.50503355704698,0.0687919463087248,0.134228187919463,0.763422818791946,NA,NA
"353",2018,"230316",1770,NA,NA,0.168926553672316,0.610169491525424,0.0361581920903955,0.474011299435028,0.0694915254237288,0.525988700564972,0.0305084745762712,0.153107344632768,0.725423728813559,NA,NA
"354",2018,"230320",314,NA,NA,NA,0.474522292993631,0.0382165605095541,0.477707006369427,0.0828025477707006,0.522292993630573,NA,0.191082802547771,0.89171974522293,NA,NA
"355",2018,"230328",2020,NA,NA,0.233168316831683,0.532178217821782,0.0415841584158416,0.494059405940594,0.0698019801980198,0.505940594059406,0.0603960396039604,0.123267326732673,0.634158415841584,NA,NA
"356",2018,"230330",108,NA,NA,0.425925925925926,0.740740740740741,NA,0.175925925925926,NA,0.824074074074074,0.138888888888889,0.194444444444444,0.37962962962963,NA,NA
"357",2018,"230334",214,NA,NA,0.177570093457944,0.691588785046729,NA,0.485981308411215,NA,0.514018691588785,0.121495327102804,0.186915887850467,0.663551401869159,NA,NA
"358",2018,"230336",1196,NA,0.0117056856187291,0.531772575250836,0.569397993311037,0.0518394648829431,0.489966555183946,0.0652173913043478,0.510033444816054,0.048494983277592,0.184782608695652,0.342809364548495,NA,NA
"359",2018,"230340",673,NA,NA,0.170876671619614,0.485884101040119,0.0237741456166419,0.471025260029718,0.0430906389301634,0.528974739970282,0.0341753343239227,0.099554234769688,0.7518573551263,NA,NA
"360",2018,"230342",182,NA,NA,0.648351648351648,0.747252747252747,NA,0.549450549450549,NA,0.450549450549451,0.0769230769230769,0.175824175824176,0.208791208791209,NA,NA
"361",2018,"230344",256,NA,NA,0.1015625,0.5546875,NA,0.546875,0.0390625,0.453125,0.09375,0.1484375,0.75,NA,NA
"362",2018,"230346",248,NA,NA,0.67741935483871,0.782258064516129,NA,0.467741935483871,0.0564516129032258,0.532258064516129,0.0564516129032258,0.153225806451613,0.193548387096774,NA,NA
"363",2018,"230348",316,NA,NA,0.436708860759494,0.556962025316456,0.0443037974683544,0.424050632911392,0.069620253164557,0.575949367088608,0.0886075949367089,0.120253164556962,0.39873417721519,NA,NA
"364",2018,"230351",1643,NA,NA,0.19780888618381,0.601339013998783,0.0194765672550213,0.503956177723676,0.0529519172245892,0.496043822276324,0.0736457699330493,0.148508825319537,0.670724284844796,NA,NA
"365",2018,"230352",1516,NA,0.0138522427440633,0.175461741424802,0.575857519788918,0.0158311345646438,0.474934036939314,0.04155672823219,0.525065963060686,0.0659630606860158,0.136543535620053,0.703166226912929,NA,NA
"366",2018,"230355",254,NA,NA,0.417322834645669,0.425196850393701,NA,0.496062992125984,0.062992125984252,0.503937007874016,0.062992125984252,0.173228346456693,0.448818897637795,NA,NA
"367",2018,"230357",224,NA,NA,0.348214285714286,0.544642857142857,NA,0.401785714285714,0.0803571428571429,0.598214285714286,0.0535714285714286,0.142857142857143,0.517857142857143,NA,NA
"368",2018,"230359",68,NA,NA,0.367647058823529,0.485294117647059,NA,0.617647058823529,NA,0.382352941176471,NA,1,0.455882352941176,NA,NA
"369",2018,"230362",1116,NA,0.0161290322580645,0.517025089605735,0.475806451612903,0.0537634408602151,0.482974910394265,0.0851254480286738,0.517025089605735,0.0259856630824373,0.157706093189964,0.35573476702509,NA,NA
"370",2018,"230364",776,NA,0.0154639175257732,0.188144329896907,0.529639175257732,0.047680412371134,0.463917525773196,0.077319587628866,0.536082474226804,0.047680412371134,0.141752577319588,0.67139175257732,NA,NA
"371",2018,"230368",842,NA,NA,0.389548693586698,0.604513064133017,0.0427553444180523,0.489311163895487,0.0914489311163895,0.510688836104513,0.0380047505938242,0.224465558194774,0.478622327790974,NA,NA
"372",2018,"230370",434,NA,NA,0.221198156682028,0.502304147465438,0.0368663594470046,0.465437788018433,0.0691244239631336,0.534562211981567,0.0852534562211982,0.122119815668203,0.610599078341014,NA,NA
"373",2018,"230376",398,NA,NA,0.251256281407035,0.587939698492462,0.100502512562814,0.49748743718593,0.150753768844221,0.50251256281407,0.0778894472361809,0.153266331658291,0.515075376884422,NA,NA
"374",2018,"230380",252,NA,NA,0.150793650793651,0.507936507936508,0.0476190476190476,0.523809523809524,0.0396825396825397,0.476190476190476,0.0793650793650794,0.0952380952380952,0.714285714285714,NA,NA
"375",2018,"230LEA",15776,0.00107758620689655,0.00678245436105477,0.269903651115619,0.55876014198783,0.0365745436105477,0.483202332657201,0.0655425963488844,0.516797667342799,0.0564781947261663,0.153714503042596,0.599835192697769,NA,NA
"376",2018,"23A000",832,NA,NA,0.103365384615385,0.164663461538462,0.03125,0.533653846153846,0.0697115384615385,0.466346153846154,0.0408653846153846,0.0865384615384615,0.775240384615385,NA,NA
"377",2018,"240304",296,0.0540540540540541,NA,0.351351351351351,0.425675675675676,0.148648648648649,0.472972972972973,0.199324324324324,0.527027027027027,NA,0.226351351351351,0.368243243243243,NA,NA
"378",2018,"240308",336,0.0357142857142857,NA,0.30952380952381,0.485119047619048,0.12797619047619,0.479166666666667,0.202380952380952,0.520833333333333,0.0505952380952381,0.136904761904762,0.401785714285714,NA,NA
"379",2018,"240328",521,NA,NA,0.268714011516315,0.449136276391555,0.0211132437619962,0.566218809980806,0.0556621880998081,0.433781190019194,NA,0.0998080614203455,0.656429942418426,NA,NA
"380",2018,"240330",243,NA,NA,0.724279835390947,0.666666666666667,NA,0.489711934156379,0.0493827160493827,0.510288065843621,NA,0.176954732510288,0.209876543209877,NA,NA
"381",2018,"240332",281,NA,NA,0.604982206405694,0.725978647686833,0.0355871886120996,0.491103202846975,0.0711743772241993,0.508896797153025,0.0427046263345196,0.128113879003559,0.252669039145907,NA,NA
"382",2018,"240344",419,0.0238663484486874,NA,0.400954653937947,0.508353221957041,NA,0.482100238663485,0.0477326968973747,0.517899761336515,0.0238663484486874,0.116945107398568,0.498806682577566,NA,NA
"383",2018,"240352",132,NA,NA,0.295454545454545,0.356060606060606,0.121212121212121,0.424242424242424,0.303030303030303,0.575757575757576,NA,0.174242424242424,0.386363636363636,NA,NA
"384",2018,"240354",430,0.188372093023256,NA,0.344186046511628,0.567441860465116,0.106976744186047,0.469767441860465,0.174418604651163,0.530232558139535,0.0953488372093023,0.0813953488372093,0.197674418604651,NA,NA
"385",2018,"240356",522,0.258620689655172,NA,0.304597701149425,0.42911877394636,0.0574712643678161,0.498084291187739,0.118773946360153,0.501915708812261,0.0517241379310345,0.116858237547893,0.266283524904215,NA,NA
"386",2018,"240368",415,NA,NA,0.156626506024096,0.387951807228916,0.0987951807228916,0.440963855421687,0.267469879518072,0.559036144578313,NA,0.0746987951807229,0.566265060240964,NA,NA
"387",2018,"240370",305,NA,NA,NA,0.357377049180328,0.0557377049180328,0.527868852459016,0.177049180327869,0.472131147540984,NA,0.104918032786885,0.780327868852459,NA,NA
"388",2018,"240372",390,NA,NA,0.471794871794872,0.576923076923077,NA,0.430769230769231,0.0769230769230769,0.569230769230769,NA,0.125641025641026,0.430769230769231,NA,NA
"389",2018,"240376",383,NA,NA,0.490861618798956,0.545691906005222,NA,0.459530026109661,0.0600522193211488,0.540469973890339,NA,0.151436031331593,0.449086161879896,NA,NA
"390",2018,"240388",1135,0.0114537444933921,NA,0.12511013215859,0.407929515418502,NA,0.499559471365639,0.0449339207048458,0.500440528634361,NA,0.144493392070485,0.814096916299559,NA,NA
"391",2018,"240LEA",5808,0.0497589531680441,NA,0.309056473829201,0.479338842975207,0.0506198347107438,0.486914600550964,0.112603305785124,0.513085399449036,0.0225550964187328,0.128443526170799,0.504304407713499,NA,NA
"392",2018,"241304",1121,0.00892060660124889,NA,0.385370205173952,0.454950936663693,0.0669045495093666,0.454058876003568,0.0972346119536128,0.545941123996432,0.0713648528099911,0.109723461195361,0.435325602140946,NA,NA
"393",2018,"241308",1236,0.0121359223300971,0.0113268608414239,0.450647249190939,0.584142394822006,0.0906148867313916,0.469255663430421,0.121359223300971,0.530744336569579,0.0728155339805825,0.147249190938511,0.331715210355987,NA,NA
"394",2018,"241312",22,NA,NA,0.454545454545455,0.590909090909091,NA,NA,NA,0.772727272727273,NA,NA,NA,NA,NA
"395",2018,"241LEA",2379,0.0105086170659941,0.00672551492223623,0.419924337957125,0.523329129886507,0.078604455653636,0.459857082807902,0.108869272803699,0.540142917192098,0.0727196300966793,0.128205128205128,0.381252627154266,NA,NA
"396",2018,"24B000",100,NA,NA,0.22,0.38,NA,0.49,0.13,0.51,0.12,0.2,0.53,NA,NA
"397",2018,"24N000",1064,0.0413533834586466,0.0131578947368421,0.215225563909774,0.407894736842105,0.0103383458646617,0.516917293233083,0.0328947368421053,0.483082706766917,0.0422932330827068,0.109962406015038,0.655075187969925,NA,NA
"398",2018,"250304",517,NA,0.0696324951644101,0.294003868471954,0.491295938104449,0.0541586073500967,0.539651837524178,0.0618955512572534,0.460348162475822,0.034816247582205,0.0657640232108317,0.526112185686654,NA,NA
"399",2018,"250306",527,NA,0.0626185958254269,0.309297912713473,0.447817836812144,0.0607210626185958,0.461100569259962,0.0815939278937381,0.538899430740038,0.0588235294117647,0.157495256166983,0.487666034155598,NA,NA
"400",2018,"250308",505,NA,NA,0.156435643564356,0.607920792079208,0.0277227722772277,0.526732673267327,0.0891089108910891,0.473267326732673,0.0435643564356436,0.097029702970297,0.687128712871287,NA,NA
"401",2018,"250312",784,NA,0.0153061224489796,0.211734693877551,0.501275510204082,0.0357142857142857,0.443877551020408,0.0982142857142857,0.556122448979592,0.0676020408163265,0.108418367346939,0.604591836734694,NA,NA
"402",2018,"250316",638,NA,0.0391849529780564,0.0752351097178683,0.205329153605016,0.0344827586206897,0.507836990595611,0.0752351097178683,0.492163009404389,0.0297805642633229,0.112852664576803,0.777429467084639,NA,NA
"403",2018,"250320",708,NA,NA,0.292372881355932,0.717514124293785,0.0522598870056497,0.463276836158192,0.0748587570621469,0.536723163841808,0.0508474576271186,0.107344632768362,0.581920903954802,NA,NA
"404",2018,"250324",1300,NA,0.0446153846153846,0.215384615384615,0.433076923076923,0.0453846153846154,0.483076923076923,0.0792307692307692,0.516923076923077,0.0453846153846154,0.116153846153846,0.613076923076923,NA,NA
"405",2018,"250328",271,NA,NA,0.173431734317343,0.634686346863469,0.0848708487084871,0.487084870848708,0.217712177121771,0.512915129151292,0.0885608856088561,0.0774907749077491,0.505535055350554,NA,NA
"406",2018,"250332",1898,NA,0.0869336143308746,0.395152792413066,0.604320337197049,0.0932560590094837,0.467860906217071,0.0706006322444679,0.532139093782929,0.0547945205479452,0.137513171759747,0.390937829293994,NA,NA
"407",2018,"250336",404,NA,NA,0.287128712871287,0.75,NA,0.514851485148515,0.198019801980198,0.485148514851485,0.101485148514851,0.138613861386139,0.408415841584158,NA,NA
"408",2018,"250344",850,NA,0.0164705882352941,0.387058823529412,0.609411764705882,0.0329411764705882,0.509411764705882,0.0988235294117647,0.490588235294118,0.124705882352941,0.123529411764706,0.357647058823529,NA,NA
"409",2018,"250348",335,NA,0.125373134328358,0.77910447761194,0.958208955223881,0.125373134328358,0.492537313432836,0.0417910447761194,0.507462686567164,0.0298507462686567,0.22089552238806,NA,NA,NA
"410",2018,"250350",522,NA,NA,0.339080459770115,0.674329501915709,0.0574712643678161,0.480842911877395,0.0862068965517241,0.519157088122605,0.0747126436781609,0.111111111111111,0.490421455938697,NA,NA
"411",2018,"250360",475,NA,0.0484210526315789,0.469473684210526,0.903157894736842,0.170526315789474,0.515789473684211,0.206315789473684,0.484210526315789,0.0842105263157895,0.0884210526315789,0.178947368421053,NA,NA
"412",2018,"250362",436,NA,NA,0.426605504587156,0.63302752293578,NA,0.444954128440367,0.103211009174312,0.555045871559633,0.0573394495412844,0.178899082568807,0.394495412844037,NA,NA
"413",2018,"250364",485,NA,0.22680412371134,0.336082474226804,0.734020618556701,0.220618556701031,0.443298969072165,0.107216494845361,0.556701030927835,0.105154639175258,0.0762886597938144,0.224742268041237,NA,NA
"414",2018,"250368",1129,NA,0.0256864481842338,0.139946855624446,0.314437555358725,0.024800708591674,0.474756421612046,0.132860938883968,0.525243578387954,0.0841452612931798,0.141718334809566,0.609388839681134,NA,NA
"415",2018,"250376",1673,NA,0.00717274357441721,0.313209802749552,0.652121936640765,0.0717274357441721,0.499701135684399,0.143454871488344,0.500298864315601,0.0526001195457262,0.126718469814704,0.482367005379558,NA,NA
"416",2018,"250378",410,NA,0.024390243902439,0.180487804878049,0.363414634146341,NA,0.55609756097561,0.15609756097561,0.44390243902439,0.0536585365853659,0.102439024390244,0.570731707317073,NA,NA
"417",2018,"250380",732,NA,0.0245901639344262,0.120218579234973,0.398907103825137,0.0204918032786885,0.450819672131148,0.165300546448087,0.549180327868853,0.0887978142076503,0.113387978142077,0.601092896174863,NA,NA
"418",2018,"250LEA",14599,0.00184944174258511,0.0412357010754161,0.2870744571546,0.558462908418385,0.0611685731899445,0.484759230084252,0.108706075758614,0.515240769915748,0.0649359545174327,0.121857661483663,0.493321460373998,NA,NA
"419",2018,"260306",506,0.0197628458498024,NA,0.241106719367589,0.381422924901186,0.0276679841897233,0.462450592885375,0.116600790513834,0.537549407114625,0.0988142292490119,0.187747035573123,0.50395256916996,NA,NA
"420",2018,"260308",524,NA,0.0477099236641221,0.517175572519084,0.564885496183206,0.0438931297709924,0.471374045801527,0.0896946564885496,0.528625954198473,0.0591603053435115,0.122137404580153,0.269083969465649,NA,NA
"421",2018,"260310",637,NA,0.0251177394034537,0.642072213500785,0.430141287284144,0.032967032967033,0.478806907378336,0.10989010989011,0.521193092621664,0.0832025117739403,0.191522762951334,0.122448979591837,NA,NA
"422",2018,"260312",117,NA,NA,NA,0.41025641025641,NA,0.521367521367521,0.11965811965812,0.478632478632479,NA,0.102564102564103,0.743589743589744,NA,NA
"423",2018,"260316",227,NA,NA,0.568281938325991,0.696035242290749,0.052863436123348,0.581497797356828,0.202643171806167,0.418502202643172,0.079295154185022,0.149779735682819,0.140969162995595,NA,NA
"424",2018,"260320",572,NA,NA,0.688811188811189,0.718531468531469,0.041958041958042,0.477272727272727,0.11013986013986,0.522727272727273,0.0506993006993007,0.171328671328671,0.136363636363636,NA,NA
"425",2018,"260321",1377,0.0261437908496732,0.00798838053740015,0.537400145243283,0.626724763979666,0.0689905591866376,0.479302832244009,0.184458968772694,0.520697167755991,0.074800290486565,0.197530864197531,0.160493827160494,NA,NA
"426",2018,"260326",609,0.0197044334975369,NA,0.602627257799672,0.691297208538588,0.0656814449917898,0.471264367816092,0.139573070607553,0.528735632183908,0.0623973727422003,0.210180623973727,0.15927750410509,NA,NA
"427",2018,"260332",496,NA,NA,0.213709677419355,0.350806451612903,0.0383064516129032,0.461693548387097,0.0846774193548387,0.538306451612903,0.0725806451612903,0.179435483870968,0.604838709677419,NA,NA
"428",2018,"260336",970,NA,NA,0.589690721649485,0.424742268041237,0.0319587628865979,0.448453608247423,0.176288659793814,0.551546391752577,0.103092783505155,0.205154639175258,0.106185567010309,NA,NA
"429",2018,"260338",726,NA,NA,0.699724517906336,0.641873278236915,0.0550964187327824,0.480716253443526,0.140495867768595,0.519283746556474,0.0509641873278237,0.137741046831956,0.0881542699724518,NA,NA
"430",2018,"260340",502,NA,NA,0.649402390438247,0.565737051792829,0.0318725099601594,0.470119521912351,0.0537848605577689,0.529880478087649,0.099601593625498,0.143426294820717,0.173306772908367,NA,NA
"431",2018,"260342",595,0.0436974789915966,0.0201680672268908,0.341176470588235,0.373109243697479,0.0436974789915966,0.495798319327731,0.134453781512605,0.504201680672269,0.141176470588235,0.154621848739496,0.309243697478992,NA,NA
"432",2018,"260344",225,NA,NA,0.466666666666667,0.662222222222222,NA,0.484444444444444,0.12,0.515555555555556,0.111111111111111,0.191111111111111,0.253333333333333,NA,NA
"433",2018,"260348",721,0.0221914008321775,NA,0.510402219140083,0.479889042995839,0.0707350901525659,0.527045769764216,0.205270457697642,0.472954230235784,0.087378640776699,0.141470180305132,0.170596393897365,NA,NA
"434",2018,"260352",407,NA,NA,0.511056511056511,0.751842751842752,0.0933660933660934,0.484029484029484,0.181818181818182,0.515970515970516,0.108108108108108,0.211302211302211,0.167076167076167,NA,NA
"435",2018,"260356",260,NA,NA,0.103846153846154,0.534615384615385,0.0538461538461538,0.396153846153846,0.169230769230769,0.603846153846154,0.0653846153846154,0.230769230769231,0.653846153846154,NA,NA
"436",2018,"260358",1229,0.00895036615134255,NA,0.74206672091131,0.668022782750203,0.0374288039056143,0.497152156224573,0.0927583401139137,0.502847843775427,0.0691619202603743,0.202603742880391,0.0699755899104963,NA,NA
"437",2018,"260361",298,NA,NA,0.895973154362416,0.848993288590604,NA,0.493288590604027,0.0335570469798658,0.506711409395973,0.0536912751677852,0.201342281879195,NA,NA,NA
"438",2018,"260362",2451,0.0346797225622195,0.01468788249694,0.228070175438596,0.47531619747042,0.0412076703386373,0.498980008159935,0.135454916360669,0.501019991840065,0.0873113015095879,0.139942880456956,0.497756017951856,NA,NA
"439",2018,"260364",795,0.0389937106918239,NA,0.271698113207547,0.39496855345912,0.0515723270440252,0.514465408805031,0.144654088050314,0.485534591194969,0.0943396226415094,0.10188679245283,0.446540880503145,NA,NA
"440",2018,"260365",1641,0.0140158439975625,0.0170627666057282,0.43327239488117,0.464351005484461,0.036563071297989,0.486898232784887,0.117611212675198,0.513101767215113,0.0737355271176112,0.140767824497258,0.340645947592931,NA,NA
"441",2018,"260366",877,NA,0.0330672748004561,0.352337514253136,0.434435575826682,0.0421892816419612,0.485746864310148,0.19042189281642,0.514253135689852,0.0718358038768529,0.0900798175598632,0.340935005701254,NA,NA
"442",2018,"260367",1006,0.0129224652087475,0.010934393638171,0.541749502982107,0.508946322067594,0.0397614314115308,0.489065606361829,0.174950298210736,0.510934393638171,0.0974155069582505,0.140159045725646,0.154075546719682,NA,NA
"443",2018,"260368",1317,0.0318906605922551,0.0197418375094913,0.306757782839787,0.347000759301443,0.0356871678056188,0.4874715261959,0.138952164009112,0.5125284738041,0.0987091875474563,0.167805618830676,0.398633257403189,NA,NA
"444",2018,"260369",2318,0.0146678170836928,0.0582398619499569,0.246764452113891,0.338222605694564,0.0414150129421915,0.485763589301122,0.160051768766178,0.514236410698878,0.0953408110440035,0.114322691975841,0.424072476272649,NA,NA
"445",2018,"260370",903,0.0299003322259136,0.0110741971207087,0.478405315614618,0.434108527131783,0.0254706533776301,0.478405315614618,0.112956810631229,0.521594684385382,0.0841638981173865,0.160575858250277,0.272425249169435,NA,NA
"446",2018,"260371",601,0.0232945091514143,NA,0.512479201331115,0.663893510815308,0.0698835274542429,0.532445923460898,0.143094841930116,0.467554076539101,0.0881863560732113,0.198003327787022,0.219633943427621,NA,NA
"447",2018,"260372",1150,NA,NA,0.678260869565217,0.592173913043478,0.048695652173913,0.481739130434783,0.156521739130435,0.518260869565217,0.0626086956521739,0.177391304347826,0.0904347826086957,NA,NA
"448",2018,"260373",1230,0.0317073170731707,0.0138211382113821,0.282113821138211,0.485365853658537,0.0268292682926829,0.460162601626016,0.130081300813008,0.539837398373984,0.0691056910569106,0.126829268292683,0.469105691056911,NA,NA
"449",2018,"260375",549,0.058287795992714,NA,0.183970856102004,0.402550091074681,0.0327868852459016,0.448087431693989,0.1183970856102,0.551912568306011,0.10200364298725,0.129326047358834,0.531876138433515,NA,NA
"450",2018,"260380",786,0.0139949109414758,0.0267175572519084,0.201017811704835,0.385496183206107,0.0305343511450382,0.521628498727735,0.108142493638677,0.478371501272265,0.0788804071246819,0.184478371501272,0.567430025445293,NA,NA
"451",2018,"260382",483,NA,NA,0.72463768115942,0.561076604554865,NA,0.525879917184265,0.062111801242236,0.474120082815735,0.093167701863354,0.10351966873706,0.0973084886128364,NA,NA
"452",2018,"260383",2580,0.0391472868217054,0.00465116279069767,0.268992248062015,0.515116279069767,0.0391472868217054,0.454263565891473,0.10968992248062,0.545736434108527,0.0937984496124031,0.157751937984496,0.479457364341085,NA,NA
"453",2018,"260386",335,NA,NA,0.707462686567164,0.71044776119403,0.0298507462686567,0.462686567164179,0.0925373134328358,0.537313432835821,0.0835820895522388,0.140298507462687,0.0865671641791045,NA,NA
"454",2018,"260396",484,0.0227272727272727,NA,0.442148760330579,0.685950413223141,0.0495867768595041,0.508264462809917,0.173553719008264,0.491735537190083,0.0888429752066116,0.150826446280992,0.268595041322314,NA,NA
"455",2018,"260397",1115,NA,0.0376681614349776,0.282511210762332,0.446636771300448,0.0466367713004484,0.544394618834081,0.207174887892377,0.455605381165919,0.0860986547085202,0.112107623318386,0.376681614349776,NA,NA
"456",2018,"260398",588,NA,NA,0.493197278911565,0.428571428571429,0.0408163265306122,0.464285714285714,0.273809523809524,0.535714285714286,0.0850340136054422,0.168367346938776,0.13265306122449,NA,NA
"457",2018,"260400",438,NA,NA,0.490867579908676,0.531963470319635,0.0616438356164384,0.506849315068493,0.155251141552511,0.493150684931507,0.0936073059360731,0.143835616438356,0.21689497716895,NA,NA
"458",2018,"260401",634,NA,0.0347003154574132,0.597791798107255,0.443217665615142,0.0536277602523659,0.509463722397476,0.107255520504732,0.490536277602524,0.124605678233438,0.15615141955836,0.126182965299685,NA,NA
"459",2018,"260402",364,NA,NA,0.596153846153846,0.684065934065934,0.0741758241758242,0.549450549450549,0.145604395604396,0.450549450549451,0.0906593406593407,0.181318681318681,0.131868131868132,NA,NA
"460",2018,"260403",920,NA,0.033695652173913,0.43804347826087,0.53695652173913,0.0304347826086957,0.484782608695652,0.147826086956522,0.515217391304348,0.0858695652173913,0.141304347826087,0.290217391304348,NA,NA
"461",2018,"260404",425,NA,NA,0.644705882352941,0.632941176470588,0.0541176470588235,0.508235294117647,0.178823529411765,0.491764705882353,0.0588235294117647,0.129411764705882,0.0894117647058824,NA,NA
"462",2018,"260405",272,NA,NA,0.860294117647059,0.768382352941177,NA,0.485294117647059,0.0441176470588235,0.514705882352941,NA,0.150735294117647,0.0404411764705882,NA,NA
"463",2018,"260406",1773,0.00676818950930626,0.0169204737732657,0.3248730964467,0.47433728144388,0.0360970107163001,0.486745628877609,0.161308516638466,0.513254371122391,0.0846023688663283,0.120699379582628,0.401015228426396,NA,NA
"464",2018,"260407",749,NA,0.0146862483311081,0.527369826435247,0.349799732977303,0.0280373831775701,0.469959946595461,0.209612817089453,0.530040053404539,0.096128170894526,0.137516688918558,0.142857142857143,NA,NA
"465",2018,"260410",411,NA,0.0291970802919708,0.564476885644769,0.62287104622871,0.0583941605839416,0.399026763990268,0.197080291970803,0.600973236009732,0.072992700729927,0.153284671532847,0.102189781021898,NA,NA
"466",2018,"260413",326,NA,NA,0.739263803680982,0.702453987730061,NA,0.325153374233129,0.0674846625766871,0.674846625766871,0.0674846625766871,0.254601226993865,0.104294478527607,NA,NA
"467",2018,"260414",647,NA,0.0170015455950541,0.550231839258114,0.511591962905719,0.0432766615146832,0.48531684698609,0.142194744976816,0.51468315301391,0.136012364760433,0.193199381761978,0.132921174652241,NA,NA
"468",2018,"260415",815,0.0171779141104294,0.0147239263803681,0.293251533742331,0.339877300613497,0.0331288343558282,0.499386503067485,0.159509202453988,0.500613496932515,0.0871165644171779,0.115337423312883,0.425766871165644,NA,NA
"469",2018,"260416",295,0.0983050847457627,NA,0.311864406779661,0.525423728813559,0.0610169491525424,0.464406779661017,0.108474576271186,0.535593220338983,0.0440677966101695,0.311864406779661,0.430508474576271,NA,NA
"470",2018,"260417",895,NA,0.0212290502793296,0.440223463687151,0.525139664804469,0.0268156424581006,0.513966480446927,0.145251396648045,0.486033519553073,0.0815642458100559,0.118435754189944,0.302793296089385,NA,NA
"471",2018,"260418",1062,NA,0.0649717514124294,0.488700564971751,0.5,0.019774011299435,0.544256120527307,0.161016949152542,0.455743879472693,0.0819209039548023,0.0470809792843691,0.198681732580038,NA,NA
"472",2018,"260419",753,NA,0.0172642762284197,0.698539176626826,0.671978751660027,0.0318725099601594,0.572377158034529,0.0836653386454183,0.427622841965471,0.0637450199203187,0.0624169986719788,0.130146082337317,NA,NA
"473",2018,"260425",1444,0.0186980609418283,0.00831024930747922,0.509695290858726,0.469529085872576,0.0734072022160665,0.503462603878116,0.165512465373961,0.496537396121884,0.0768698060941828,0.185595567867036,0.21814404432133,NA,NA
"474",2018,"260426",418,NA,NA,0.521531100478469,0.633971291866029,0.0837320574162679,0.413875598086124,0.191387559808612,0.586124401913876,0.0909090909090909,0.136363636363636,0.157894736842105,NA,NA
"475",2018,"260428",1049,0.0114394661582459,0.0142993326978074,0.646329837940896,0.620591039084843,0.0514775977121068,0.520495710200191,0.144899904671115,0.479504289799809,0.0772163965681602,0.213536701620591,0.100095328884652,NA,NA
"476",2018,"260430",522,NA,NA,0.147509578544061,0.325670498084291,0.0421455938697318,0.515325670498084,0.0689655172413793,0.484674329501916,0.0747126436781609,0.296934865900383,0.695402298850575,NA,NA
"477",2018,"260434",1168,0.0154109589041096,0.0881849315068493,0.194349315068493,0.259417808219178,0.035958904109589,0.459760273972603,0.138698630136986,0.540239726027397,0.086472602739726,0.111301369863014,0.476883561643836,NA,NA
"478",2018,"260440",353,NA,NA,0.657223796033994,0.645892351274788,0.0878186968838527,0.484419263456091,0.0509915014164306,0.515580736543909,0.107648725212465,0.127478753541076,0.147308781869688,NA,NA
"479",2018,"260444",273,NA,NA,0.864468864468865,0.871794871794872,NA,0.575091575091575,0.0695970695970696,0.424908424908425,NA,0.168498168498169,NA,NA,NA
"480",2018,"260448",947,0.0105596620908131,0.0538542766631468,0.279831045406547,0.430834213305174,0.0454065469904963,0.487856388595565,0.0686378035902851,0.512143611404435,0.0982048574445618,0.101372756071806,0.488912354804646,NA,NA
"481",2018,"260450",461,NA,NA,0.702819956616052,0.605206073752712,0.0303687635574837,0.529284164859002,0.0976138828633406,0.470715835140998,0.052060737527115,0.20824295010846,0.134490238611714,NA,NA
"482",2018,"260452",590,NA,NA,0.728813559322034,0.749152542372881,0.0559322033898305,0.471186440677966,0.127118644067797,0.528813559322034,0.076271186440678,0.145762711864407,0.0423728813559322,NA,NA
"483",2018,"260454",1651,0.0078740157480315,0.00908540278619019,0.678376741368867,0.606904906117505,0.0411871592973955,0.447001817080557,0.12961841308298,0.552998182919443,0.0775287704421563,0.144155057540884,0.0860084797092671,NA,NA
"484",2018,"260459",341,NA,NA,0.592375366568915,0.624633431085044,0.0381231671554252,0.571847507331378,0.140762463343109,0.428152492668622,0.0821114369501466,0.170087976539589,0.146627565982405,NA,NA
"485",2018,"260LEA",52203,0.0169530486753635,0.0189452713445587,0.452426105779361,0.509434323697872,0.042545447579641,0.488286113824876,0.138727659329924,0.511713886175124,0.0835967281573856,0.151504702794859,0.284466409976438,NA,NA
"486",2018,"26B000",994,0.0100603621730382,NA,0.667002012072435,0.36317907444668,0.0462776659959759,0.505030181086519,0.141851106639839,0.494969818913481,0.0321931589537223,0.0573440643863179,0.130784708249497,NA,NA
"487",2018,"26C000",559,NA,NA,0.343470483005367,0.457960644007156,NA,0.558139534883721,0.144901610017889,0.441860465116279,0.10912343470483,0.107334525939177,0.389982110912343,NA,NA
"488",2018,"270304",173,NA,NA,0.0982658959537572,0.427745664739884,NA,0.526011560693642,0.138728323699422,0.473988439306358,0.069364161849711,0.0867052023121387,0.676300578034682,NA,NA
"489",2018,"270308",895,NA,NA,0.0681564245810056,0.424581005586592,0.0357541899441341,0.48268156424581,0.0960893854748603,0.51731843575419,0.101675977653631,0.149720670391061,0.731843575418994,NA,NA
"490",2018,"270309",269,NA,NA,0.0408921933085502,0.609665427509294,0.0817843866171004,0.394052044609665,0.0892193308550186,0.605947955390335,0.115241635687732,0.163568773234201,0.754646840148699,NA,NA
"491",2018,"270310",612,NA,NA,0.0588235294117647,0.379084967320261,0.0163398692810458,0.511437908496732,0.0310457516339869,0.488562091503268,0.0751633986928105,0.0898692810457516,0.823529411764706,NA,NA
"492",2018,"270312",87,NA,NA,NA,0.436781609195402,NA,0.563218390804598,NA,0.436781609195402,NA,NA,0.954022988505747,NA,NA
"493",2018,"270316",640,NA,NA,0.04375,0.165625,NA,0.4765625,0.05,0.5234375,0.0703125,0.1125,0.8265625,NA,NA
"494",2018,"270318",1305,NA,NA,0.0352490421455939,0.262068965517241,0.0137931034482759,0.511111111111111,0.0467432950191571,0.488888888888889,0.0659003831417625,0.0950191570881226,0.846743295019157,NA,NA
"495",2018,"270320",323,NA,NA,NA,0.442724458204334,0.0619195046439628,0.476780185758514,0.0773993808049536,0.523219814241486,0.0928792569659443,0.151702786377709,0.795665634674923,NA,NA
"496",2018,"270LEA",4304,NA,0.00580855018587361,0.0471654275092937,0.343633828996283,0.025092936802974,0.491868029739777,0.0629646840148699,0.508131970260223,0.0801579925650558,0.116635687732342,0.802276951672863,NA,NA
"497",2018,"27A000",52,NA,NA,NA,NA,NA,0.25,NA,0.75,NA,NA,0.711538461538462,NA,NA
"498",2018,"280302",322,NA,NA,NA,0.527950310559006,0.077639751552795,0.549689440993789,0.177018633540373,0.450310559006211,0.046583850931677,0.18944099378882,0.77639751552795,NA,NA
"499",2018,"280304",345,NA,NA,NA,0.501449275362319,0.101449275362319,0.544927536231884,0.214492753623188,0.455072463768116,0.0289855072463768,0.217391304347826,0.742028985507246,NA,NA
"500",2018,"280308",538,NA,NA,NA,0.16728624535316,NA,0.453531598513011,0.0483271375464684,0.546468401486989,0.033457249070632,0.133828996282528,0.903345724907063,NA,NA
"501",2018,"280310",668,NA,NA,NA,0.351796407185629,0.137724550898204,0.514970059880239,0.202095808383234,0.48502994011976,0.0643712574850299,0.0808383233532934,0.711077844311377,NA,NA
"502",2018,"280312",796,NA,NA,0.0577889447236181,0.554020100502513,0.195979899497487,0.53894472361809,0.257537688442211,0.46105527638191,0.0753768844221105,0.103015075376884,0.60678391959799,NA,NA
"503",2018,"280320",1036,NA,NA,0.0588803088803089,0.447876447876448,0.122586872586873,0.508687258687259,0.194980694980695,0.491312741312741,0.0260617760617761,0.103281853281853,0.712355212355212,NA,NA
"504",2018,"280324",452,NA,NA,NA,0.422566371681416,0.084070796460177,0.475663716814159,0.119469026548673,0.524336283185841,0.0420353982300885,0.128318584070796,0.831858407079646,NA,NA
"505",2018,"280328",1528,NA,0.00981675392670157,NA,0.260471204188482,0.0556282722513089,0.444371727748691,0.0896596858638743,0.555628272251309,0.0471204188481675,0.107984293193717,0.849476439790576,NA,NA
"506",2018,"280LEA",5685,NA,0.00703605980650836,0.0219876868953386,0.380299032541777,0.098504837291117,0.493051890941073,0.156552330694811,0.506948109058927,0.0464379947229551,0.118557607739666,0.767282321899736,NA,NA
"507",2018,"290302",382,NA,NA,NA,0.609947643979058,0.0968586387434555,0.473821989528796,0.128272251308901,0.526178010471204,NA,0.133507853403141,0.835078534031414,NA,NA
"508",2018,"290306",556,NA,NA,NA,0.294964028776978,NA,0.447841726618705,0.0287769784172662,0.552158273381295,0.0179856115107914,0.115107913669065,0.935251798561151,NA,NA
"509",2018,"290307",475,NA,NA,0.0294736842105263,0.562105263157895,0.0378947368421053,0.458947368421053,0.0842105263157895,0.541052631578947,0.0463157894736842,0.231578947368421,0.84,NA,NA
"510",2018,"290309",1828,NA,0.00711159737417943,0.0426695842450766,0.521334792122538,0.0421225382932166,0.481400437636761,0.0858862144420131,0.518599562363239,0.0486870897155361,0.140590809628009,0.815645514223195,NA,NA
"511",2018,"290310",59,NA,NA,NA,0.677966101694915,NA,0.372881355932203,NA,0.627118644067797,NA,1,0.915254237288136,NA,NA
"512",2018,"290312",576,NA,NA,0.0173611111111111,0.618055555555556,0.0920138888888889,0.475694444444444,0.149305555555556,0.524305555555556,NA,0.161458333333333,0.829861111111111,NA,NA
"513",2018,"290316",598,NA,NA,0.0183946488294314,0.439799331103679,0.048494983277592,0.506688963210702,0.088628762541806,0.493311036789298,0.0351170568561873,0.142140468227425,0.857859531772575,NA,NA
"514",2018,"290320",396,NA,NA,NA,0.565656565656566,NA,0.515151515151515,0.0328282828282828,0.484848484848485,NA,0.159090909090909,0.946969696969697,NA,NA
"515",2018,"290322",1575,NA,0.019047619047619,0.0101587301587302,0.468571428571429,0.0457142857142857,0.482539682539683,0.0990476190476191,0.517460317460318,0.0114285714285714,0.125079365079365,0.855238095238095,NA,NA
"516",2018,"290328",650,NA,0.0184615384615385,0.0246153846153846,0.587692307692308,0.0876923076923077,0.484615384615385,0.173846153846154,0.515384615384615,NA,0.164615384615385,0.770769230769231,NA,NA
"517",2018,"290330",540,NA,NA,0.0240740740740741,0.240740740740741,0.0277777777777778,0.507407407407407,0.0722222222222222,0.492592592592593,0.0259259259259259,0.107407407407407,0.864814814814815,NA,NA
"518",2018,"290332",636,NA,0.0157232704402516,0.0455974842767296,0.606918238993711,0.117924528301887,0.45125786163522,0.257861635220126,0.54874213836478,0.0471698113207547,0.160377358490566,0.633647798742138,NA,NA
"519",2018,"290333",560,NA,0.025,0.0785714285714286,0.369642857142857,0.0732142857142857,0.517857142857143,0.167857142857143,0.482142857142857,0.0446428571428571,0.0928571428571429,0.683928571428571,NA,NA
"520",2018,"290334",1612,NA,0.0254342431761787,0.0949131513647643,0.43424317617866,0.0595533498759305,0.474565756823821,0.185483870967742,0.525434243176179,0.0260545905707196,0.114143920595533,0.661910669975186,NA,NA
"521",2018,"290344",621,NA,NA,0.0563607085346216,0.357487922705314,0.037037037037037,0.407407407407407,0.0982286634460548,0.592592592592593,NA,0.164251207729469,0.826086956521739,NA,NA
"522",2018,"290350",1717,NA,0.0157251019219569,0.0209668025626092,0.340128130460105,0.0372743156668608,0.467093768200349,0.087361677344205,0.532906231799651,0.0302853814793244,0.117064647641235,0.842166569598136,NA,NA
"523",2018,"290351",1628,NA,0.00982800982800983,0.0442260442260442,0.294226044226044,0.0264127764127764,0.501842751842752,0.0657248157248157,0.498157248157248,0.0202702702702703,0.12039312039312,0.855036855036855,NA,NA
"524",2018,"290352",507,NA,NA,NA,0.601577909270217,0.029585798816568,0.532544378698225,0.0966469428007889,0.467455621301775,0.0355029585798817,0.102564102564103,0.846153846153846,NA,NA
"525",2018,"290356",412,0.0242718446601942,NA,NA,0.526699029126214,NA,0.37378640776699,NA,0.62621359223301,NA,0.152912621359223,0.91747572815534,NA,NA
"526",2018,"290364",268,NA,NA,NA,0.667910447761194,NA,0.473880597014925,0.0522388059701493,0.526119402985075,0.0522388059701493,0.223880597014925,0.895522388059702,NA,NA
"527",2018,"290366",723,NA,NA,0.0387275242047026,0.659751037344398,0.0746887966804979,0.503457814661134,0.132780082987552,0.496542185338866,0.0387275242047026,0.146611341632089,0.773167358229599,NA,NA
"528",2018,"290367",671,NA,NA,NA,0.566318926974665,NA,0.43070044709389,0.022354694485842,0.56929955290611,0.014903129657228,0.198211624441133,0.959761549925484,NA,NA
"529",2018,"290375",452,NA,NA,0.0376106194690266,0.519911504424779,0.0907079646017699,0.433628318584071,0.128318584070796,0.566371681415929,NA,0.199115044247788,0.794247787610619,NA,NA
"530",2018,"290376",1427,NA,0.00700770847932726,0.0343377715487036,0.52697967764541,0.0392431674842327,0.464611072179397,0.0756832515767344,0.535388927820603,0.0245269796776454,0.144358794674142,0.85353889278206,NA,NA
"531",2018,"290380",1037,NA,0.029893924783028,0.0761812921890068,0.373191899710704,0.0491803278688525,0.507232401157184,0.0732883317261331,0.492767598842816,0.0337512054001929,0.112825458052073,0.786885245901639,NA,NA
"532",2018,"290384",704,NA,0.0340909090909091,0.0525568181818182,0.488636363636364,0.0653409090909091,0.473011363636364,0.106534090909091,0.526988636363636,0.0340909090909091,0.0809659090909091,0.768465909090909,NA,NA
"533",2018,"290LEA",20610,0.00320232896652111,0.0126152353226589,0.0364386220281417,0.465987384764677,0.0477438136826783,0.47627365356623,0.101892285298399,0.52372634643377,0.027802037845706,0.13901018922853,0.817661329451722,NA,NA
"534",2018,"291308",655,NA,0.0274809160305344,0.300763358778626,0.688549618320611,0.259541984732824,0.421374045801527,0.345038167938931,0.578625954198473,0.108396946564885,0.116030534351145,0.218320610687023,NA,NA
"535",2018,"291332",1567,0.00638162093171666,0.0561582641991066,0.305041480536056,0.592852584556477,0.212507977026165,0.514996809189534,0.373324824505424,0.485003190810466,0.0561582641991066,0.0989151244416082,0.19910657306956,NA,NA
"536",2018,"291340",605,NA,0.0859504132231405,0.285950413223141,0.616528925619835,0.274380165289256,0.509090909090909,0.302479338842975,0.490909090909091,0.0958677685950413,0.0776859504132231,0.229752066115702,NA,NA
"537",2018,"291350",34,NA,NA,0.382352941176471,0.764705882352941,NA,0.470588235294118,0.411764705882353,0.529411764705882,NA,1,NA,NA,NA
"538",2018,"291352",650,NA,0.0307692307692308,0.263076923076923,0.633846153846154,0.193846153846154,0.435384615384615,0.290769230769231,0.564615384615385,0.127692307692308,0.161538461538462,0.28,NA,NA
"539",2018,"291LEA",3511,0.00370264881800057,0.0506978068926232,0.293933352321276,0.624038735403019,0.228709769296497,0.481344346340074,0.340928510395899,0.518655653659926,0.0854457419538593,0.118769581315864,0.223013386499573,NA,NA
"540",2018,"292316",953,NA,NA,0.347324239244491,0.567681007345226,0.245540398740818,0.521511017838405,0.345225603357817,0.478488982161595,0.0923399790136411,0.117523609653725,0.206715634837356,NA,NA
"541",2018,"292318",384,NA,NA,0.4375,0.635416666666667,0.270833333333333,0.53125,0.333333333333333,0.46875,0.0729166666666667,0.09375,0.135416666666667,NA,NA
"542",2018,"292320",1175,NA,0.0102127659574468,0.359148936170213,0.541276595744681,0.274042553191489,0.462978723404255,0.382127659574468,0.537021276595745,0.0561702127659574,0.148085106382979,0.18468085106383,NA,NA
"543",2018,"292LEA",2516,0.00516693163751987,0.00715421303656598,0.366852146263911,0.565580286168522,0.262321144674086,0.495627980922099,0.360095389507154,0.504372019077901,0.0723370429252782,0.129570747217806,0.186009538950715,NA,NA
"544",2018,"298202",72,NA,NA,0.486111111111111,0.513888888888889,0.152777777777778,0.486111111111111,0.138888888888889,0.513888888888889,NA,1,0.291666666666667,NA,NA
"545",2018,"298203",43,NA,NA,0.395348837209302,0.325581395348837,NA,0.581395348837209,NA,0.418604651162791,NA,1,0.418604651162791,NA,NA
"546",2018,"298204",63,NA,NA,0.238095238095238,0.412698412698413,0.222222222222222,0.46031746031746,0.174603174603175,0.53968253968254,NA,0.968253968253968,0.396825396825397,NA,NA
"547",2018,"300306",32,NA,NA,NA,0.59375,NA,0.40625,NA,0.59375,NA,0.40625,0.84375,NA,NA
"548",2018,"300308",523,NA,NA,0.107074569789675,0.707456978967495,0.126195028680688,0.489483747609943,0.204588910133843,0.510516252390057,0.0688336520076482,0.168260038240918,0.61376673040153,NA,NA
"549",2018,"300310",424,NA,NA,0.0518867924528302,0.495283018867925,0.0966981132075472,0.492924528301887,0.167452830188679,0.507075471698113,0.035377358490566,0.148584905660377,0.740566037735849,NA,NA
"550",2018,"300320",642,NA,NA,0.133956386292835,0.641744548286604,0.149532710280374,0.492211838006231,0.258566978193146,0.507788161993769,0.0700934579439252,0.143302180685358,0.526479750778816,NA,NA
"551",2018,"300325",1024,NA,NA,0.029296875,0.345703125,0.056640625,0.4560546875,0.1220703125,0.5439453125,0.041015625,0.1279296875,0.798828125,NA,NA
"552",2018,"300326",649,NA,0.0154083204930663,0.0416024653312789,0.36517719568567,0.061633281972265,0.491525423728814,0.104776579352851,0.508474576271186,0.0431432973805855,0.107858243451464,0.795069337442219,NA,NA
"553",2018,"300328",617,NA,NA,0.0194489465153971,0.160453808752026,NA,0.413290113452188,0.0388978930307942,0.586709886547812,0.0551053484602917,0.157212317666126,0.881685575364668,NA,NA
"554",2018,"300330",1284,NA,NA,0.108255451713396,0.644859813084112,0.107476635514019,0.521806853582555,0.226635514018692,0.478193146417445,0.0475077881619938,0.166666666666667,0.610591900311526,NA,NA
"555",2018,"300336",459,NA,NA,0.0522875816993464,0.57516339869281,0.0871459694989107,0.492374727668845,0.115468409586057,0.507625272331155,0.0893246187363834,0.213507625272331,0.729847494553377,NA,NA
"556",2018,"300337",1112,NA,0.0161870503597122,0.026978417266187,0.282374100719424,0.0512589928057554,0.462230215827338,0.098021582733813,0.537769784172662,0.0467625899280576,0.151978417266187,0.81205035971223,NA,NA
"557",2018,"300LEA",6766,NA,0.00872007094295004,0.063700857227313,0.459207803724505,0.0799586166124741,0.479603901862252,0.149866981968667,0.520396098137748,0.0523204256577003,0.152970736033107,0.724209281702631,NA,NA
"558",2018,"310304",1332,NA,NA,0.0472972972972973,0.387387387387387,0.478228228228228,0.493993993993994,0.658408408408408,0.506006006006006,0.015015015015015,0.0645645645645646,0.279279279279279,NA,NA
"559",2018,"310308",1377,NA,NA,0.136528685548293,0.347131445170661,0.127814088598402,0.497458242556282,0.225127087872186,0.502541757443718,0.0290486564996369,0.139433551198257,0.602759622367465,NA,NA
"560",2018,"310330",809,NA,NA,0.149567367119901,0.283065512978986,0.0556242274412855,0.561186650185414,0.137206427688504,0.438813349814586,0.0222496909765142,0.118665018541409,0.686032138442522,NA,NA
"561",2018,"310336",1242,NA,0.00966183574879227,0.454106280193237,0.49597423510467,0.2914653784219,0.500805152979066,0.380032206119163,0.499194847020934,0.0209339774557166,0.105475040257649,0.126409017713366,NA,NA
"562",2018,"310356",856,NA,NA,0.287383177570093,0.393691588785047,0.170560747663551,0.457943925233645,0.272196261682243,0.542056074766355,0.0315420560747664,0.122663551401869,0.39018691588785,NA,NA
"563",2018,"310360",939,0.0117145899893504,NA,0.108626198083067,0.375931842385517,0.336528221512247,0.471778487752929,0.54419595314164,0.528221512247071,0.0181043663471778,0.0788072417465389,0.313099041533546,NA,NA
"564",2018,"310364",384,NA,NA,0.119791666666667,0.309895833333333,0.247395833333333,0.494791666666667,0.440104166666667,0.505208333333333,NA,0.078125,0.416666666666667,NA,NA
"565",2018,"310384",1741,0.00574382538770821,NA,0.281447443997702,0.499138426191844,0.381964388282596,0.471568064330844,0.561746122917863,0.528431935669156,0.0201033888569787,0.0970706490522688,0.130959218839747,NA,NA
"566",2018,"310388",1730,0.00635838150289017,NA,0.282080924855491,0.461271676300578,0.245664739884393,0.485549132947977,0.420231213872832,0.514450867052023,0.0369942196531792,0.0739884393063584,0.252601156069364,NA,NA
"567",2018,"310LEA",10410,0.00528338136407301,0.00307396733909702,0.221709894332373,0.414505283381364,0.275408261287224,0.490393852065322,0.421517771373679,0.509606147934678,0.0245917387127762,0.0971181556195965,0.323439000960615,NA,NA
"568",2018,"320304",790,NA,NA,0.518987341772152,0.529113924050633,0.311392405063291,0.489873417721519,0.389873417721519,0.510126582278481,0.0329113924050633,0.107594936708861,0.0443037974683544,NA,NA
"569",2018,"320306",1199,NA,0.0191826522101751,0.405337781484571,0.741451209341118,0.333611342785655,0.480400333611343,0.399499582985821,0.519599666388657,0.0308590492076731,0.180984153461218,0.13511259382819,NA,NA
"570",2018,"320308",408,NA,NA,0.433823529411765,0.58578431372549,0.367647058823529,0.465686274509804,0.544117647058823,0.534313725490196,NA,0.129901960784314,NA,NA,NA
"571",2018,"320310",613,NA,NA,0.456769983686786,0.711256117455139,0.34584013050571,0.450244698205546,0.487765089722675,0.549755301794454,0.0277324632952692,0.0864600326264274,0.0195758564437194,NA,NA
"572",2018,"320313",642,NA,0.0529595015576324,0.182242990654206,0.313084112149533,0.171339563862928,0.433021806853583,0.221183800623053,0.566978193146417,0.0327102803738318,0.124610591900312,0.504672897196262,NA,NA
"573",2018,"320314",697,NA,NA,0.413199426111908,0.447632711621234,0.139167862266858,0.489239598278336,0.24103299856528,0.510760401721664,0.0344332855093257,0.21377331420373,0.3012912482066,NA,NA
"574",2018,"320315",594,NA,0.0252525252525253,0.675084175084175,0.580808080808081,0.168350168350168,0.518518518518518,0.245791245791246,0.481481481481481,0.0185185185185185,0.127946127946128,0.0353535353535354,NA,NA
"575",2018,"320316",2000,NA,0.022,0.4745,0.669,0.2105,0.4845,0.309,0.5155,0.0335,0.1345,0.158,NA,NA
"576",2018,"320318",524,NA,NA,0.194656488549618,0.625954198473282,0.286259541984733,0.452290076335878,0.475190839694656,0.547709923664122,0.0400763358778626,0.162213740458015,0.286259541984733,NA,NA
"577",2018,"320319",1028,NA,0.051556420233463,0.331712062256809,0.461089494163424,0.251945525291829,0.518482490272374,0.263618677042802,0.481517509727626,0.0359922178988327,0.0642023346303502,0.315175097276265,NA,NA
"578",2018,"320320",733,0.0150068212824011,NA,0.44474761255116,0.581173260572988,0.364256480218281,0.457025920873124,0.48431105047749,0.542974079126876,NA,0.139154160982265,0.0272851296043656,NA,NA
"579",2018,"320323",1509,NA,0.0444002650762094,0.286282306163022,0.411530815109344,0.160371106693174,0.632869449966865,0.29688535453943,0.367130550033135,0.0357852882703777,0.073558648111332,0.333333333333333,NA,NA
"580",2018,"320324",710,NA,0.0380281690140845,0.436619718309859,0.585915492957746,0.18169014084507,0.471830985915493,0.271830985915493,0.528169014084507,NA,0.149295774647887,0.23943661971831,NA,NA
"581",2018,"320327",755,NA,0.0278145695364238,0.360264900662252,0.678145695364238,0.386754966887417,0.543046357615894,0.380132450331126,0.456953642384106,0.0357615894039735,0.127152317880795,0.193377483443709,NA,NA
"582",2018,"320328",843,NA,0.0130486358244365,0.377224199288256,0.827995255041518,0.408066429418743,0.481613285883749,0.531435349940688,0.518386714116251,0.0249110320284698,0.104389086595492,0.0450771055753262,NA,NA
"583",2018,"320332",881,NA,0.039727582292849,0.262202043132804,0.59477866061294,0.360953461975028,0.506242905788876,0.343927355278093,0.493757094211124,0.0556186152099886,0.144154370034052,0.296254256526674,NA,NA
"584",2018,"320338",1053,NA,0.0104463437796771,0.647673314339981,0.761633428300095,0.205128205128205,0.514719848053181,0.318138651471985,0.485280151946819,0.0151946818613485,0.094017094017094,NA,NA,NA
"585",2018,"320339",449,NA,NA,0.33630289532294,0.55902004454343,0.534521158129176,0.485523385300668,0.612472160356347,0.514476614699332,NA,0.0467706013363029,NA,NA,NA
"586",2018,"320340",762,NA,NA,0.283464566929134,0.360892388451444,0.0918635170603675,0.493438320209974,0.177165354330709,0.506561679790026,0.0341207349081365,0.177165354330709,0.484251968503937,NA,NA
"587",2018,"320341",152,NA,NA,0.802631578947368,0.75,0.0986842105263158,0.269736842105263,0.144736842105263,0.730263157894737,NA,0.256578947368421,NA,NA,NA
"588",2018,"320342",679,NA,0.0309278350515464,0.245949926362297,0.38880706921944,0.172312223858616,0.491899852724595,0.268041237113402,0.508100147275405,0.0795287187039764,0.151693667157585,0.375552282768778,NA,NA
"589",2018,"320343",1079,NA,NA,0.4967562557924,0.612604263206673,0.176088971269694,0.534754402224282,0.295644114921223,0.465245597775718,0.0379981464318814,0.14643188137164,0.163113994439296,NA,NA
"590",2018,"320344",316,NA,NA,0.642405063291139,0.613924050632911,0.300632911392405,0.468354430379747,0.310126582278481,0.531645569620253,NA,0.104430379746835,NA,NA,NA
"591",2018,"320346",1336,NA,0.00973053892215569,0.592814371257485,0.820359281437126,0.241017964071856,0.470059880239521,0.335329341317365,0.529940119760479,0.0269461077844311,0.153443113772455,0.0336826347305389,NA,NA
"592",2018,"320347",396,NA,NA,0.207070707070707,0.396464646464646,0.166666666666667,0.45959595959596,0.343434343434343,0.54040404040404,0.0252525252525253,0.227272727272727,0.419191919191919,NA,NA
"593",2018,"320348",398,NA,NA,0.0979899497487437,0.256281407035176,0.0402010050251256,0.452261306532663,0.085427135678392,0.547738693467337,NA,0.148241206030151,0.778894472361809,NA,NA
"594",2018,"320352",780,NA,NA,0.496153846153846,0.541025641025641,0.312820512820513,0.433333333333333,0.458974358974359,0.566666666666667,NA,0.180769230769231,0.0358974358974359,NA,NA
"595",2018,"320354",233,NA,NA,0.28755364806867,0.399141630901288,0.133047210300429,0.502145922746781,0.261802575107296,0.497854077253219,0.0600858369098712,0.15450643776824,0.36480686695279,NA,NA
"596",2018,"320355",1770,NA,0.011864406779661,0.464406779661017,0.726553672316384,0.319209039548023,0.461581920903955,0.448587570621469,0.538418079096045,0.0265536723163842,0.133333333333333,0.0446327683615819,NA,NA
"597",2018,"320360",683,NA,NA,0.56515373352855,0.732064421669107,0.250366032210835,0.499267935578331,0.360175695461201,0.500732064421669,NA,0.144948755490483,0.0556368960468521,NA,NA
"598",2018,"320362",621,NA,0.0177133655394525,0.560386473429952,0.72463768115942,0.185185185185185,0.43317230273752,0.278582930756844,0.56682769726248,0.0579710144927536,0.177133655394525,0.0821256038647343,NA,NA
"599",2018,"320363",581,NA,NA,0.289156626506024,0.518072289156627,0.187607573149742,0.523235800344234,0.263339070567986,0.476764199655766,0.0378657487091222,0.173838209982788,0.395869191049914,NA,NA
"600",2018,"320364",948,NA,0.0432489451476793,0.471518987341772,0.306962025316456,0.0622362869198312,0.430379746835443,0.114978902953586,0.569620253164557,0.0548523206751055,0.114978902953586,0.313291139240506,NA,NA
"601",2018,"320366",2100,NA,0.0266666666666667,0.404761904761905,0.626190476190476,0.260952380952381,0.480952380952381,0.294285714285714,0.519047619047619,0.0514285714285714,0.130952380952381,0.22047619047619,NA,NA
"602",2018,"320367",337,NA,NA,0.537091988130564,0.486646884272997,0.27893175074184,0.56379821958457,0.445103857566766,0.43620178041543,NA,0.124629080118694,NA,NA,NA
"603",2018,"320369",633,NA,NA,0.562401263823065,0.530805687203792,0.187993680884676,0.533965244865719,0.30173775671406,0.466034755134281,0.0521327014218009,0.134281200631912,0.0710900473933649,NA,NA
"604",2018,"320370",1420,NA,0.0225352112676056,0.472535211267606,0.461971830985915,0.163380281690141,0.432394366197183,0.245070422535211,0.567605633802817,0.0443661971830986,0.137323943661972,0.214084507042254,NA,NA
"605",2018,"320372",794,NA,0.0415617128463476,0.542821158690176,0.653652392947103,0.202770780856423,0.498740554156171,0.234256926952141,0.501259445843829,0.0251889168765743,0.113350125944584,0.149874055415617,NA,NA
"606",2018,"320374",301,NA,NA,0.790697674418605,0.79734219269103,0.129568106312292,0.584717607973422,0.122923588039867,0.415282392026578,0.0465116279069767,0.136212624584718,NA,NA,NA
"607",2018,"320376",649,NA,0.0154083204930663,0.596302003081664,0.61171032357473,0.154083204930663,0.486902927580894,0.275808936825886,0.513097072419106,0.0154083204930663,0.104776579352851,0.0970724191063174,NA,NA
"608",2018,"320388",547,NA,NA,0.638025594149909,0.568555758683729,0.213893967093236,0.515539305301645,0.308957952468007,0.484460694698355,0.0274223034734918,0.0950639853747715,NA,NA,NA
